"velocity"
"Time Step" "vx etc.."
("Time Step" "vx(point-04-000625)" "vx(point-04-040000)" "vx(point-14-040000)" "vy(point-04-000625)" "vy(point-04-040000)" "vy(point-14-040000)" "vz(point-04-000625)" "vz(point-04-040000)" "vz(point-14-040000)" "flow-time")
48001 0.08365596 5.945762 5.55865 -0.3167278 -0.06950334 -0.01385332 0.4974869 -0.4888222 -0.7913017 6000.125
48002 0.006433676 5.977864 5.68749 -0.3313701 -0.1297635 -0.1234462 0.531957 -0.519317 -0.7853468 6000.25
48003 -0.05970719 6.035487 5.817693 -0.3421254 -0.1932755 -0.230249 0.5648232 -0.5337846 -0.7524386 6000.375
48004 -0.1202183 6.112664 5.941565 -0.3483233 -0.2585118 -0.3341788 0.5948862 -0.5216607 -0.6943073 6000.5
48005 -0.1774585 6.198326 6.046963 -0.3493195 -0.3272087 -0.4376934 0.6230554 -0.4795857 -0.6201559 6000.625
48006 -0.2332104 6.279913 6.126964 -0.3445822 -0.40354 -0.5332354 0.6500626 -0.4024863 -0.5417264 6000.75
48007 -0.2883272 6.340155 6.18039 -0.3327819 -0.4941656 -0.616937 0.6759512 -0.2877843 -0.4915125 6000.875
48008 -0.3427072 6.363663 6.215456 -0.3120241 -0.602336 -0.6610889 0.7005414 -0.1391948 -0.4901031 6001
48009 -0.3964554 6.361403 6.238348 -0.2806746 -0.7258137 -0.6583235 0.7227634 0.03355986 -0.5255079 6001.125
48010 -0.4483775 6.336172 6.255807 -0.2380597 -0.8517131 -0.6348782 0.7416586 0.2093498 -0.590931 6001.25
48011 -0.4967816 6.290751 6.271255 -0.1837207 -0.9665695 -0.5955508 0.7564445 0.3615613 -0.6737042 6001.375
48012 -0.5376063 6.232957 6.288404 -0.1154859 -1.046037 -0.5609919 0.7661082 0.4580688 -0.7574267 6001.5
48013 -0.5665597 6.179183 6.300941 -0.03126505 -1.069925 -0.5448887 0.7700159 0.4825337 -0.8266976 6001.625
48014 -0.5848648 6.140516 6.29635 0.07289339 -1.051156 -0.5429981 0.7660313 0.4572999 -0.8742942 6001.75
48015 -0.5938066 6.110954 6.276744 0.1985647 -0.9856778 -0.5550245 0.749775 0.3893175 -0.8883482 6001.875
48016 -0.5956644 6.084742 6.243764 0.3494676 -0.8775356 -0.5697226 0.7209266 0.2976808 -0.8717867 6002
48017 -0.5873704 6.056488 6.195029 0.51779 -0.7346712 -0.5764778 0.6788422 0.1994374 -0.8385965 6002.125
48018 -0.5697911 6.026126 6.131741 0.6936082 -0.5667785 -0.5737426 0.6238176 0.1139152 -0.799341 6002.25
48019 -0.5459933 5.99048 6.058193 0.8654981 -0.3796573 -0.5549932 0.5538841 0.08405617 -0.7618953 6002.375
48020 -0.5104384 5.949151 5.983295 1.029343 -0.1801997 -0.5135102 0.4640035 0.09102993 -0.7311093 6002.5
48021 -0.4644136 5.899883 5.914536 1.181105 0.02506581 -0.4479124 0.3629797 0.1310636 -0.7082304 6002.625
48022 -0.4102381 5.840737 5.854752 1.320921 0.2286975 -0.3614857 0.2608262 0.2061047 -0.6907908 6002.75
48023 -0.3504597 5.771148 5.81573 1.452112 0.4240176 -0.263987 0.1629169 0.3130535 -0.673448 6002.875
48024 -0.2880421 5.693529 5.803738 1.573353 0.6053718 -0.1685304 0.07270972 0.445397 -0.6540275 6003
48025 -0.2223089 5.613058 5.80962 1.671685 0.7691518 -0.08316769 -0.008807954 0.5935062 -0.632527 6003.125
48026 -0.1538917 5.535657 5.829955 1.732847 0.9124705 -0.03251679 -0.0835188 0.7434565 -0.6081438 6003.25
48027 -0.08838486 5.462887 5.857597 1.765971 1.033061 -0.02807395 -0.1470862 0.8774863 -0.5787615 6003.375
48028 -0.03003215 5.395873 5.887743 1.782939 1.136275 -0.05863746 -0.1969907 0.98116 -0.5394303 6003.5
48029 0.01861327 5.335744 5.903817 1.790565 1.215538 -0.1214467 -0.2299499 1.046659 -0.4876621 6003.625
48030 0.06020214 5.286014 5.89921 1.791398 1.248162 -0.2125055 -0.247135 1.078013 -0.4236218 6003.75
48031 0.08727738 5.245352 5.877901 1.789326 1.241751 -0.3282965 -0.2525955 1.088965 -0.3497776 6003.875
48032 0.09768632 5.205201 5.836883 1.785754 1.200104 -0.4674919 -0.2459328 1.100891 -0.270314 6004
48033 0.09412275 5.15741 5.779917 1.780433 1.118519 -0.6277983 -0.2289929 1.129373 -0.188501 6004.125
48034 0.07939995 5.096359 5.711246 1.772449 0.9926628 -0.8053762 -0.2041935 1.183781 -0.1089325 6004.25
48035 0.05378181 5.025529 5.639702 1.75982 0.8357344 -0.9915906 -0.1724861 1.26132 -0.03935841 6004.375
48036 0.0202153 4.94883 5.568478 1.740927 0.6589195 -1.165061 -0.1342976 1.351657 0.02337136 6004.5
48037 -0.0223322 4.875602 5.526309 1.713178 0.4678645 -1.254714 -0.08394594 1.43788 0.06788079 6004.625
48038 -0.07332002 4.815978 5.518841 1.674958 0.2721904 -1.266986 -0.02968906 1.510013 0.08613481 6004.75
48039 -0.1301665 4.772476 5.536921 1.627393 0.07691585 -1.235673 0.02137075 1.548193 0.08985809 6004.875
48040 -0.1948203 4.749643 5.582824 1.569587 -0.1090973 -1.160526 0.06975483 1.539111 0.07629212 6005
48041 -0.2691644 4.750549 5.66185 1.500095 -0.2748412 -1.047409 0.1118719 1.490495 0.04369603 6005.125
48042 -0.3535922 4.7695 5.775403 1.420514 -0.4205226 -0.9088159 0.1426367 1.41168 -0.008470347 6005.25
48043 -0.4479346 4.795671 5.918837 1.33228 -0.5494643 -0.7607408 0.1600487 1.312877 -0.07454652 6005.375
48044 -0.5505178 4.817748 6.086894 1.236321 -0.6639513 -0.6198557 0.1650557 1.205168 -0.1416915 6005.5
48045 -0.660552 4.823927 6.271327 1.130339 -0.7717009 -0.5039797 0.1578388 1.098605 -0.1996241 6005.625
48046 -0.7730225 4.80499 6.455642 1.016473 -0.8758155 -0.4260021 0.1360814 0.9987758 -0.2307546 6005.75
48047 -0.8865301 4.756368 6.620917 0.9065017 -0.9759936 -0.4032418 0.09862856 0.9074333 -0.2293056 6005.875
48048 -1.002539 4.678533 6.759433 0.8110075 -1.070694 -0.4174061 0.04702944 0.8244244 -0.2008762 6006
48049 -1.112864 4.575077 6.86285 0.7325709 -1.159352 -0.4639983 -0.01283936 0.7506577 -0.1469248 6006.125
48050 -1.220192 4.455207 6.90703 0.6702349 -1.242552 -0.5314036 -0.07694731 0.6870157 -0.08314723 6006.25
48051 -1.325484 4.331423 6.917394 0.6251283 -1.307601 -0.6087677 -0.141399 0.6393694 -0.02508209 6006.375
48052 -1.426245 4.212173 6.910866 0.6105936 -1.349901 -0.6621146 -0.2033869 0.6071138 0.0127119 6006.5
48053 -1.521625 4.102046 6.889732 0.6282275 -1.375824 -0.6736985 -0.2595292 0.5897332 0.02973233 6006.625
48054 -1.607401 4.001583 6.861404 0.6719919 -1.383885 -0.6542798 -0.3017786 0.5854798 0.03296615 6006.75
48055 -1.681097 3.90949 6.827593 0.7332433 -1.375505 -0.609933 -0.3322928 0.5905644 0.02435065 6006.875
48056 -1.745133 3.825109 6.790241 0.8017467 -1.353575 -0.5463225 -0.3558513 0.5982552 0.004515196 6007
48057 -1.800839 3.746119 6.748992 0.8693686 -1.319454 -0.4762084 -0.3744574 0.6053821 -0.01011153 6007.125
48058 -1.846908 3.671759 6.706351 0.9302206 -1.273484 -0.4085192 -0.3894382 0.6045083 -0.009761676 6007.25
48059 -1.883812 3.603369 6.664644 0.9853926 -1.21344 -0.369929 -0.4018762 0.5900761 0.002258306 6007.375
48060 -1.912098 3.542933 6.626782 1.037544 -1.136397 -0.3749368 -0.412608 0.5641065 0.02784692 6007.5
48061 -1.932778 3.495646 6.596557 1.085282 -1.039228 -0.4144601 -0.421615 0.5250291 0.06609322 6007.625
48062 -1.944438 3.466387 6.573497 1.125049 -0.9216228 -0.4896628 -0.4283456 0.4764851 0.1106632 6007.75
48063 -1.944872 3.457207 6.558135 1.15583 -0.7874135 -0.5936806 -0.4330138 0.4211556 0.1518861 6007.875
48064 -1.938278 3.468284 6.552431 1.178216 -0.6446002 -0.7115864 -0.4368556 0.3611129 0.1829349 6008
48065 -1.927336 3.493586 6.55644 1.19391 -0.494539 -0.8244141 -0.4408933 0.2963315 0.1819997 6008.125
48066 -1.912598 3.528663 6.568713 1.204206 -0.3410335 -0.9167437 -0.444729 0.227315 0.1530427 6008.25
48067 -1.894157 3.565756 6.591943 1.209198 -0.1821211 -0.981231 -0.4479116 0.1547486 0.09732822 6008.375
48068 -1.872285 3.595748 6.617732 1.209439 -0.01621423 -1.004038 -0.4498359 0.07329325 0.02261647 6008.5
48069 -1.8486 3.611956 6.643251 1.205417 0.1612639 -0.9900379 -0.4505406 -0.02691006 -0.05861795 6008.625
48070 -1.824684 3.608259 6.673377 1.198641 0.35674 -0.9624631 -0.450141 -0.1490483 -0.1058401 6008.75
48071 -1.801261 3.580818 6.700032 1.189736 0.5732281 -0.9340475 -0.4491077 -0.2925567 -0.10174 6008.875
48072 -1.778505 3.536905 6.719547 1.178072 0.798385 -0.9117171 -0.4485896 -0.453192 -0.04387783 6009
48073 -1.755734 3.493177 6.731374 1.163386 1.033255 -0.8956236 -0.4485597 -0.6254163 0.06217207 6009.125
48074 -1.73234 3.45049 6.73249 1.147437 1.228096 -0.8802724 -0.4478682 -0.7948891 0.2053948 6009.25
48075 -1.708031 3.429446 6.720471 1.131435 1.32283 -0.8601342 -0.4452421 -0.9563004 0.3705603 6009.375
48076 -1.682853 3.436702 6.688829 1.116033 1.340365 -0.8324456 -0.4401003 -1.070976 0.5380805 6009.5
48077 -1.65691 3.482827 6.634422 1.101305 1.321076 -0.7773888 -0.4325912 -1.144765 0.6962047 6009.625
48078 -1.630258 3.545998 6.561236 1.086953 1.277646 -0.6907407 -0.4232835 -1.187919 0.8380981 6009.75
48079 -1.602976 3.604295 6.472921 1.072639 1.207989 -0.5763223 -0.4126685 -1.21123 0.9587408 6009.875
48080 -1.575566 3.653417 6.378906 1.058234 1.120985 -0.436143 -0.4015749 -1.210162 1.05831 6010
48081 -1.548748 3.676877 6.294764 1.04341 1.03055 -0.275065 -0.3907793 -1.187888 1.133867 6010.125
48082 -1.522768 3.683117 6.230984 1.027601 0.9425863 -0.09761664 -0.3806267 -1.147757 1.167573 6010.25
48083 -1.497448 3.665493 6.195285 1.011156 0.8598121 0.08870681 -0.371275 -1.097564 1.154274 6010.375
48084 -1.472677 3.62591 6.189376 0.9939993 0.7866122 0.2748737 -0.3626043 -1.039122 1.101631 6010.5
48085 -1.448733 3.569586 6.196837 0.9758646 0.7279878 0.4543912 -0.3543907 -0.9736884 1.012439 6010.625
48086 -1.42555 3.502525 6.205693 0.9566745 0.6882753 0.6183412 -0.3464887 -0.9043326 0.8971403 6010.75
48087 -1.403161 3.431998 6.214668 0.9363624 0.6685108 0.7531617 -0.3388096 -0.8330065 0.7706644 6010.875
48088 -1.381578 3.364694 6.225031 0.9148881 0.6649015 0.8435161 -0.3313396 -0.7610312 0.6512278 6011
48089 -1.360778 3.306084 6.236348 0.8923953 0.6754337 0.8602809 -0.3242933 -0.6870221 0.5540059 6011.125
48090 -1.34044 3.259821 6.240836 0.8693726 0.6938094 0.8280012 -0.3177407 -0.6144662 0.486971 6011.25
48091 -1.320461 3.233412 6.237177 0.8463587 0.7144508 0.7572542 -0.311839 -0.5454894 0.4545823 6011.375
48092 -1.300974 3.220119 6.228984 0.8232796 0.7323592 0.6550109 -0.3066806 -0.4812199 0.4502357 6011.5
48093 -1.282058 3.220992 6.222198 0.8003715 0.7477993 0.5310454 -0.3022978 -0.4249606 0.4519711 6011.625
48094 -1.263742 3.232917 6.216688 0.7778008 0.7612504 0.3928076 -0.2986387 -0.3770569 0.4402708 6011.75
48095 -1.246891 3.253358 6.212795 0.7557563 0.772521 0.2453063 -0.2955346 -0.3378867 0.4066898 6011.875
48096 -1.232883 3.278889 6.207441 0.7341623 0.784094 0.09092579 -0.2927134 -0.3065461 0.3354021 6012
48097 -1.221902 3.308253 6.199467 0.7127495 0.7886817 -0.06855565 -0.2902227 -0.281141 0.2128243 6012.125
48098 -1.214014 3.338926 6.18689 0.6913362 0.7828612 -0.2323685 -0.2877432 -0.2574076 0.03083728 6012.25
48099 -1.208815 3.373588 6.167601 0.6699399 0.764214 -0.4017763 -0.284835 -0.2299323 -0.2084422 6012.375
48100 -1.205728 3.416008 6.129759 0.6482812 0.7312944 -0.5803468 -0.2818168 -0.1982258 -0.4825607 6012.5
48101 -1.204511 3.468621 6.086907 0.6259084 0.6823159 -0.7720932 -0.2787128 -0.1616821 -0.7553582 6012.625
48102 -1.204998 3.530913 6.056697 0.6028292 0.6154534 -0.9916201 -0.2755045 -0.1194078 -0.9210086 6012.75
48103 -1.207146 3.602649 6.045278 0.5791433 0.532632 -1.243921 -0.2722499 -0.06970794 -0.9336806 6012.875
48104 -1.21096 3.683795 6.037303 0.5551109 0.4351286 -1.504949 -0.2687491 -0.009632316 -0.8478198 6013
48105 -1.216749 3.767506 6.01703 0.5313655 0.3239732 -1.759977 -0.2644918 0.06599792 -0.6794426 6013.125
48106 -1.224918 3.851513 5.978001 0.5081741 0.2026379 -1.99021 -0.2594589 0.1628262 -0.4721968 6013.25
48107 -1.235605 3.911237 5.916428 0.485936 0.07632132 -2.168557 -0.2533358 0.2848963 -0.2718658 6013.375
48108 -1.248222 3.92768 5.838442 0.4648056 -0.05387263 -2.27048 -0.2460179 0.4344259 -0.1526088 6013.5
48109 -1.262665 3.911062 5.765954 0.4452637 -0.1779685 -2.302205 -0.2366868 0.605303 -0.1439203 6013.625
48110 -1.278708 3.862642 5.715518 0.4286722 -0.2878264 -2.283231 -0.2250499 0.7852177 -0.2113558 6013.75
48111 -1.296155 3.797113 5.687604 0.4136094 -0.3630775 -2.239992 -0.21109 0.9588419 -0.331764 6013.875
48112 -1.314737 3.724359 5.691641 0.3991309 -0.3832618 -2.197861 -0.1954646 1.113648 -0.4684429 6014
48113 -1.334223 3.682914 5.717007 0.3862826 -0.3497272 -2.168992 -0.1795749 1.20751 -0.5844005 6014.125
48114 -1.354326 3.693833 5.751462 0.3754864 -0.2738821 -2.173983 -0.1639062 1.234686 -0.654492 6014.25
48115 -1.374858 3.745325 5.761389 0.3667999 -0.1742589 -2.227712 -0.1484653 1.197729 -0.6676757 6014.375
48116 -1.395694 3.840058 5.739711 0.3599857 -0.06995863 -2.30707 -0.1329247 1.124487 -0.6410407 6014.5
48117 -1.416858 3.960534 5.695647 0.3545246 0.02004782 -2.383447 -0.1171092 1.033277 -0.5957741 6014.625
48118 -1.438287 4.098362 5.638806 0.3502648 0.08791144 -2.440078 -0.1012341 0.9619086 -0.5524502 6014.75
48119 -1.459903 4.206921 5.55257 0.3471514 0.1255057 -2.45183 -0.08551393 0.9303185 -0.5243021 6014.875
48120 -1.481516 4.253426 5.429365 0.3449319 0.1360212 -2.418066 -0.06993646 0.9327332 -0.5189295 6015
48121 -1.502657 4.256793 5.272061 0.3434894 0.1136696 -2.358042 -0.05409933 0.9640267 -0.5432539 6015.125
48122 -1.523043 4.234572 5.08742 0.342703 0.06018891 -2.276668 -0.04025506 1.027096 -0.5959148 6015.25
48123 -1.541902 4.172472 4.886714 0.3425762 -0.01117126 -2.170631 -0.02754747 1.116335 -0.6701435 6015.375
48124 -1.558897 4.069097 4.685414 0.3431652 -0.09007172 -2.036438 -0.0149793 1.218243 -0.7560104 6015.5
48125 -1.57407 3.940501 4.500408 0.3439164 -0.176944 -1.866264 -0.002252414 1.321237 -0.8377676 6015.625
48126 -1.587235 3.804801 4.345992 0.3453817 -0.2499339 -1.656928 0.01079773 1.413582 -0.9061288 6015.75
48127 -1.597786 3.677752 4.263357 0.3476346 -0.2947276 -1.404871 0.02458873 1.486203 -0.9380072 6015.875
48128 -1.605394 3.573388 4.268391 0.3479944 -0.2961216 -1.116395 0.03976981 1.534641 -0.9312563 6016
48129 -1.609897 3.493538 4.356701 0.3454675 -0.2694912 -0.8010426 0.05458068 1.558581 -0.8894569 6016.125
48130 -1.610877 3.435393 4.528673 0.3408776 -0.2195665 -0.475088 0.06909674 1.561242 -0.8241119 6016.25
48131 -1.609729 3.395857 4.759625 0.3333175 -0.1521135 -0.1595749 0.08331119 1.550874 -0.7417582 6016.375
48132 -1.609261 3.383328 5.012109 0.3238153 -0.07218764 0.1280624 0.09696732 1.53848 -0.6848132 6016.5
48133 -1.612571 3.391582 5.254274 0.3117476 0.01199119 0.375929 0.1099704 1.52688 -0.6821144 6016.625
48134 -1.618053 3.41662 5.457312 0.2963456 0.09192391 0.5773721 0.1213415 1.52335 -0.7530949 6016.75
48135 -1.624585 3.464569 5.568442 0.2779989 0.1600665 0.7234818 0.1306936 1.528652 -0.9021897 6016.875
48136 -1.632486 3.540054 5.568266 0.2578474 0.2124655 0.821514 0.1377612 1.539592 -1.117439 6017
48137 -1.642687 3.642886 5.490576 0.2364166 0.24904 0.8611009 0.1451611 1.541315 -1.370379 6017.125
48138 -1.657733 3.773728 5.336652 0.2135168 0.2694985 0.8484758 0.1564892 1.529662 -1.635082 6017.25
48139 -1.676412 3.93006 5.142211 0.1897941 0.2868685 0.7986292 0.1693062 1.501852 -1.910337 6017.375
48140 -1.699235 4.086054 4.943096 0.1654054 0.3128192 0.6934605 0.1832844 1.470611 -2.150911 6017.5
48141 -1.727079 4.225712 4.75563 0.1395939 0.353234 0.5307105 0.1975186 1.437987 -2.329707 6017.625
48142 -1.760929 4.339509 4.596241 0.1116881 0.4131138 0.3293538 0.2119525 1.402373 -2.390034 6017.75
48143 -1.801115 4.413581 4.465116 0.08193006 0.4989649 0.1089787 0.2265642 1.361963 -2.374521 6017.875
48144 -1.848856 4.439382 4.344745 0.05144104 0.6103334 -0.1027396 0.2402821 1.31256 -2.295571 6018
48145 -1.904766 4.440611 4.224462 0.02076638 0.7372544 -0.274767 0.2524777 1.254454 -2.172414 6018.125
48146 -1.968138 4.422342 4.093336 -0.01023159 0.8799059 -0.3836404 0.2624269 1.189714 -2.029352 6018.25
48147 -2.038679 4.383404 3.961885 -0.0445988 0.999458 -0.4022167 0.2691933 1.116748 -1.893598 6018.375
48148 -2.115957 4.33014 3.826452 -0.07773793 1.080933 -0.3524844 0.272086 1.042165 -1.785093 6018.5
48149 -2.204426 4.267002 3.694326 -0.1065798 1.106731 -0.2517281 0.2700028 0.9787762 -1.701094 6018.625
48150 -2.303441 4.198739 3.567881 -0.1308609 1.101525 -0.1192321 0.2626396 0.9304691 -1.617115 6018.75
48151 -2.404184 4.125954 3.466415 -0.1471949 1.063869 0.03281519 0.2500182 0.9004519 -1.521757 6018.875
48152 -2.494494 4.052988 3.399577 -0.1535264 0.9983197 0.1928711 0.2364533 0.8790712 -1.412626 6019
48153 -2.557442 3.982221 3.363132 -0.1561849 0.9117353 0.3511791 0.2213579 0.8676249 -1.291996 6019.125
48154 -2.596902 3.915462 3.357413 -0.1561117 0.8104039 0.499793 0.2043596 0.864013 -1.163031 6019.25
48155 -2.621111 3.854664 3.378882 -0.1535868 0.6987973 0.6328861 0.1870798 0.8658605 -1.035024 6019.375
48156 -2.636562 3.795984 3.426157 -0.1473972 0.5817872 0.7498813 0.1713096 0.8716291 -0.9149306 6019.5
48157 -2.647562 3.738127 3.492735 -0.137949 0.4643833 0.8481855 0.1586159 0.8865601 -0.8211203 6019.625
48158 -2.656053 3.675478 3.572415 -0.1233261 0.3507667 0.9308038 0.1574814 0.8974783 -0.7690938 6019.75
48159 -2.662902 3.608485 3.655542 -0.1018377 0.2474189 1.004872 0.1717432 0.8975914 -0.7645273 6019.875
48160 -2.667069 3.54097 3.736092 -0.07230404 0.1507852 1.072347 0.1927793 0.8867698 -0.7889841 6020
48161 -2.666993 3.476871 3.810441 -0.03460062 0.07906551 1.135234 0.2149686 0.8591012 -0.8383119 6020.125
48162 -2.661985 3.415996 3.873379 0.0152411 0.03078277 1.196977 0.2354748 0.8241217 -0.8975469 6020.25
48163 -2.655328 3.361413 3.928334 0.07603841 0.01316206 1.259857 0.2546521 0.787766 -0.9629796 6020.375
48164 -2.650109 3.314944 3.978693 0.1497557 0.02085437 1.322074 0.2716323 0.7461229 -1.00923 6020.5
48165 -2.649944 3.275443 4.025619 0.2346952 0.04250843 1.381751 0.2781988 0.699639 -1.03158 6020.625
48166 -2.658175 3.240404 4.061839 0.3276167 0.07869846 1.440704 0.2721586 0.6469348 -1.020412 6020.75
48167 -2.675363 3.207115 4.09889 0.4364137 0.1308354 1.477506 0.2632677 0.586274 -0.9962987 6020.875
48168 -2.69967 3.172041 4.145899 0.542188 0.1873354 1.489288 0.2543825 0.5163625 -0.9705838 6021
59693 0.3201053 6.652633 6.693164 -0.2559098 -0.07230745 0.648438 -0.06725498 -1.181427 0.01491798 7461.625
59694 0.336419 6.665282 6.676363 -0.3259235 0.04050074 0.58912 -0.03520555 -1.086054 0.0008674257 7461.75
59695 0.3504996 6.648625 6.640073 -0.401184 0.1547931 0.5284693 -0.0008171058 -0.9281906 -0.02759509 7461.875
59696 0.3608173 6.581717 6.586527 -0.4810272 0.2501813 0.4585542 0.04237287 -0.6951308 -0.06542243 7462
59697 0.3665031 6.449471 6.52159 -0.5697048 0.2929249 0.3734978 0.08959919 -0.3865607 -0.1087325 7462.125
59698 0.370041 6.272293 6.449908 -0.6690774 0.2890928 0.2733011 0.1349106 -0.0116325 -0.1533248 7462.25
59699 0.3732162 6.078699 6.372471 -0.7787929 0.2628217 0.1615465 0.173714 0.3954287 -0.1957718 7462.375
59700 0.3757719 5.90168 6.2928 -0.9006886 0.2402255 0.04710957 0.2031118 0.7823343 -0.2324412 7462.5
59701 0.3777302 5.764497 6.219626 -1.036813 0.2400304 -0.07080096 0.2191065 1.094158 -0.2615667 7462.625
59702 0.380851 5.703703 6.159229 -1.193559 0.2768973 -0.1475811 0.2144401 1.248168 -0.2816579 7462.75
59703 0.3880636 5.721148 6.119721 -1.349931 0.3213978 -0.1690506 0.1891991 1.235831 -0.2935368 7462.875
59704 0.4015159 5.790576 6.104332 -1.49658 0.3477175 -0.1700436 0.1514115 1.131448 -0.2980658 7463
59705 0.4212553 5.879049 6.103688 -1.625217 0.3381807 -0.1577352 0.09342416 0.975046 -0.29915 7463.125
59706 0.4460124 5.94368 6.11246 -1.730332 0.292493 -0.1431327 0.02656811 0.8085305 -0.2996518 7463.25
59707 0.476622 5.965941 6.128496 -1.806525 0.218923 -0.1312453 -0.03999156 0.6598548 -0.3024435 7463.375
59708 0.5160559 5.950716 6.149508 -1.840395 0.1270033 -0.1258386 -0.1022776 0.5284119 -0.3116297 7463.5
59709 0.5675524 5.890302 6.179364 -1.846502 0.05433359 -0.1287656 -0.1436387 0.3968785 -0.3294722 7463.625
59710 0.6186475 5.790449 6.204879 -1.837403 0.02412224 -0.1403436 -0.1580268 0.2404195 -0.3551676 7463.75
59711 0.6596072 5.667418 6.214766 -1.821131 0.02802305 -0.1554738 -0.1566015 0.05676177 -0.3862807 7463.875
59712 0.6899122 5.539501 6.214884 -1.806199 0.0615219 -0.1682311 -0.1451258 -0.1490164 -0.4147879 7464
59713 0.7081888 5.418978 6.20789 -1.787018 0.1227824 -0.172325 -0.1248526 -0.3583188 -0.4380862 7464.125
59714 0.7176819 5.341886 6.192043 -1.766353 0.1859881 -0.1639161 -0.09628975 -0.5521144 -0.4480765 7464.25
