"velocity"
"Time Step" "vx etc.."
("Time Step" "vx(point-04-000625)" "vx(point-04-080000)" "vx(point-14-080000)" "vy(point-04-000625)" "vy(point-04-080000)" "vy(point-14-080000)" "vz(point-04-000625)" "vz(point-04-080000)" "vz(point-14-080000)" "flow-time")
48001 1.438399 6.914614 6.727718 1.623394 0.558625 0.04434268 -0.1991062 0.02498342 0.5990072 6000.125
48002 1.417478 6.908979 6.66429 1.5973 0.5762143 0.1207329 -0.2003899 0.009816721 0.5904725 6000.25
48003 1.398543 6.901238 6.613362 1.571541 0.598369 0.1980573 -0.2015068 -0.003899391 0.5581819 6000.375
48004 1.38266 6.894185 6.571512 1.54631 0.6232619 0.2765737 -0.2023622 -0.01761753 0.5019858 6000.5
48005 1.369307 6.888923 6.536864 1.522015 0.6495235 0.3502108 -0.2022327 -0.03289295 0.4269265 6000.625
48006 1.357444 6.885671 6.518004 1.497764 0.6764776 0.4122448 -0.200154 -0.05014121 0.3430524 6000.75
48007 1.347289 6.885637 6.511341 1.47311 0.7035321 0.4594713 -0.1968967 -0.07038189 0.2584545 6000.875
48008 1.338764 6.889846 6.513292 1.44791 0.7294191 0.4941902 -0.1914909 -0.09392271 0.1807373 6001
48009 1.332171 6.898585 6.520931 1.422864 0.7533005 0.5103821 -0.1830064 -0.122184 0.1145428 6001.125
48010 1.328124 6.9127 6.53169 1.398156 0.7740842 0.5115118 -0.17097 -0.1562747 0.06182234 6001.25
48011 1.328427 6.931658 6.544426 1.373332 0.7903256 0.5022991 -0.1551816 -0.1958908 0.02045496 6001.375
48012 1.334736 6.954977 6.554366 1.348043 0.8008935 0.4858119 -0.1358051 -0.2421188 -0.01315714 6001.5
48013 1.344952 6.980826 6.56048 1.322377 0.8020011 0.4648405 -0.1130156 -0.2980169 -0.04119793 6001.625
48014 1.35698 7.007735 6.563543 1.295938 0.7894226 0.4436262 -0.08692102 -0.3645205 -0.06438307 6001.75
48015 1.369842 7.03345 6.564084 1.26819 0.7613679 0.4237875 -0.05755792 -0.4416107 -0.08254093 6001.875
48016 1.383722 7.055603 6.564468 1.238161 0.7127014 0.4060698 -0.02553889 -0.5248783 -0.09502278 6002
48017 1.399126 7.073082 6.565601 1.204881 0.6380488 0.3901473 0.008965698 -0.6098474 -0.1034473 6002.125
48018 1.415427 7.086542 6.56937 1.169205 0.5341711 0.3733856 0.04657668 -0.6903475 -0.1088599 6002.25
48019 1.431148 7.0984 6.574661 1.132452 0.3987729 0.356096 0.08735289 -0.7612898 -0.1131928 6002.375
48020 1.446449 7.111676 6.581193 1.093294 0.2337683 0.3375227 0.1313141 -0.8155975 -0.117368 6002.5
48021 1.462312 7.129123 6.588644 1.049195 0.04396738 0.316681 0.1731309 -0.8505161 -0.1201983 6002.625
48022 1.475889 7.155741 6.597438 0.9963323 -0.1588183 0.295422 0.208114 -0.852696 -0.1208919 6002.75
48023 1.484285 7.193807 6.60459 0.9303965 -0.3587832 0.2744712 0.2389897 -0.8354795 -0.1191363 6002.875
48024 1.488662 7.248862 6.608488 0.8497667 -0.5445862 0.2549697 0.2640506 -0.8002336 -0.1152963 6003
48025 1.487736 7.325962 6.605881 0.7546942 -0.6723077 0.2356798 0.2842085 -0.7632584 -0.1107605 6003.125
48026 1.480401 7.426058 6.595546 0.6446308 -0.7121199 0.2229259 0.2994878 -0.7364847 -0.1093841 6003.25
48027 1.466426 7.542985 6.573982 0.5203972 -0.6961797 0.2183368 0.3083751 -0.7377525 -0.1115106 6003.375
48028 1.443191 7.671885 6.544406 0.3819316 -0.6427612 0.2235285 0.3113798 -0.7588814 -0.1186112 6003.5
48029 1.411235 7.806024 6.50908 0.2111521 -0.5711464 0.2374413 0.3046357 -0.7881837 -0.1324088 6003.625
48030 1.37736 7.928837 6.469263 0.01365776 -0.4984873 0.2591462 0.2954093 -0.7975909 -0.1541583 6003.75
48031 1.345676 8.026612 6.426831 -0.1921931 -0.4609062 0.2877633 0.285924 -0.7889255 -0.1844764 6003.875
48032 1.317988 8.083467 6.383115 -0.3967115 -0.4647356 0.3216307 0.2745928 -0.7591651 -0.2230716 6004
48033 1.295171 8.090829 6.341854 -0.5945439 -0.5107391 0.3577713 0.2602853 -0.7101467 -0.268432 6004.125
48034 1.281656 8.066525 6.306095 -0.7737601 -0.5902662 0.3938273 0.2394099 -0.6517419 -0.3187246 6004.25
48035 1.283718 8.011745 6.275231 -0.927603 -0.6866494 0.4285805 0.2119361 -0.5917448 -0.3701299 6004.375
48036 1.299725 7.936288 6.256067 -1.028348 -0.7852298 0.4590253 0.1815353 -0.5407223 -0.4200514 6004.5
48037 1.32584 7.853223 6.250761 -1.074573 -0.8763144 0.4839863 0.1501876 -0.5007064 -0.4670461 6004.625
48038 1.360809 7.775669 6.256407 -1.084688 -0.9528812 0.5029278 0.1236919 -0.4666733 -0.5107375 6004.75
48039 1.411059 7.708093 6.273033 -1.074864 -0.9966474 0.5177152 0.1072382 -0.4288209 -0.5489913 6004.875
48040 1.478143 7.649335 6.299109 -1.051696 -1.006092 0.5299339 0.09746123 -0.3888618 -0.5800201 6005
48041 1.559241 7.59389 6.33219 -1.020624 -1.001149 0.5420729 0.09374404 -0.3478444 -0.6028339 6005.125
48042 1.647038 7.538301 6.370454 -0.981127 -0.9831972 0.555867 0.09335066 -0.3090523 -0.6190691 6005.25
48043 1.733576 7.48193 6.412491 -0.9282981 -0.9580921 0.5734584 0.09473599 -0.2768445 -0.6254192 6005.375
48044 1.812848 7.422222 6.456545 -0.8622625 -0.9253983 0.5959026 0.09639984 -0.2499518 -0.6221707 6005.5
48045 1.874566 7.358384 6.500868 -0.7829549 -0.887258 0.6234416 0.09712404 -0.2269314 -0.6127487 6005.625
48046 1.912407 7.291412 6.544188 -0.690565 -0.8446209 0.6557105 0.0953908 -0.2061769 -0.5968775 6005.75
48047 1.931376 7.225362 6.585587 -0.5895538 -0.7990784 0.6917045 0.09415676 -0.189092 -0.5749423 6005.875
48048 1.939618 7.164361 6.624491 -0.4810687 -0.7518611 0.7296218 0.09260875 -0.1789538 -0.5470096 6006
48049 1.941381 7.112547 6.660693 -0.366341 -0.7040555 0.767413 0.0899099 -0.1774895 -0.5129237 6006.125
48050 1.937041 7.072036 6.694901 -0.2472197 -0.6555049 0.80341 0.08675012 -0.1890494 -0.4712912 6006.25
48051 1.925763 7.043133 6.72763 -0.1258316 -0.6057324 0.8362893 0.08231602 -0.2091404 -0.4212712 6006.375
48052 1.904843 7.025483 6.760391 -0.006404178 -0.554377 0.8643841 0.07690971 -0.2369929 -0.360397 6006.5
48053 1.873271 7.017264 6.79462 0.1103773 -0.5010579 0.8888108 0.06953853 -0.2693441 -0.2903284 6006.625
48054 1.832534 7.018919 6.832563 0.2232231 -0.4465883 0.9109418 0.06109674 -0.3015603 -0.2124267 6006.75
48055 1.781621 7.024857 6.87524 0.331781 -0.3917184 0.9317853 0.05337286 -0.3296326 -0.1311939 6006.875
48056 1.721032 7.032515 6.92102 0.4345937 -0.3371714 0.95222 0.04171525 -0.351427 -0.04850468 6007
48057 1.654703 7.04085 6.968711 0.5303525 -0.2844617 0.9738221 0.02489852 -0.3592622 0.02691606 6007.125
48058 1.590677 7.048003 7.017005 0.6175297 -0.2347885 0.9991245 -0.0001243811 -0.3532251 0.08554105 6007.25
48059 1.536074 7.052425 7.063191 0.6916969 -0.1888895 1.028551 -0.02890263 -0.3323342 0.1036092 6007.375
48060 1.492545 7.054442 7.100935 0.7462906 -0.1484079 1.064477 -0.05707183 -0.2975639 0.09881818 6007.5
48061 1.453847 7.054312 7.133974 0.7829651 -0.1138286 1.1044 -0.08465984 -0.2508432 0.07390433 6007.625
48062 1.415384 7.052189 7.162001 0.8065922 -0.08482518 1.146008 -0.1068848 -0.1945259 0.02892533 6007.75
48063 1.378697 7.04912 7.183417 0.8203784 -0.05957332 1.171039 -0.1251415 -0.1326834 -0.02758003 6007.875
48064 1.343063 7.047643 7.199389 0.8253291 -0.03630628 1.169355 -0.139869 -0.06956653 -0.09099129 6008
48065 1.30994 7.049263 7.204838 0.8214343 -0.01357848 1.140697 -0.1478532 -0.008961943 -0.1565401 6008.125
48066 1.278949 7.055319 7.204037 0.8117333 0.00908746 1.077619 -0.1489796 0.04492066 -0.2200825 6008.25
48067 1.248726 7.06635 7.199662 0.8004615 0.03207872 0.9770784 -0.1438719 0.0898971 -0.2780088 6008.375
48068 1.219185 7.083967 7.191811 0.7913625 0.05455286 0.8423207 -0.1344462 0.1255665 -0.3273653 6008.5
48069 1.191037 7.10868 7.18426 0.787963 0.07617308 0.6798334 -0.1227423 0.1547639 -0.3669739 6008.625
48070 1.164508 7.138913 7.184541 0.7952969 0.09603934 0.5012501 -0.1102751 0.1814441 -0.39673 6008.75
48071 1.138923 7.173514 7.190284 0.814081 0.1080874 0.320252 -0.09746921 0.2087151 -0.4185207 6008.875
48072 1.113491 7.210344 7.20218 0.8439296 0.1087816 0.1481587 -0.08595042 0.2383599 -0.4298698 6009
48073 1.087755 7.235381 7.225179 0.8824621 0.100135 -0.006373741 -0.0766554 0.2700822 -0.4330807 6009.125
48074 1.063965 7.249732 7.257871 0.9292578 0.08095965 -0.1312766 -0.07044573 0.3021837 -0.4306886 6009.25
48075 1.044578 7.258007 7.297997 0.9858275 0.05142567 -0.2228107 -0.06810652 0.3309349 -0.4225863 6009.375
48076 1.027201 7.265096 7.344294 1.051532 0.01453371 -0.2623062 -0.06725142 0.3547758 -0.4091956 6009.5
48077 1.013249 7.273577 7.39431 1.126898 -0.0270135 -0.2546856 -0.06683024 0.3626272 -0.3898552 6009.625
48078 1.004131 7.285209 7.44278 1.209299 -0.06833951 -0.2109054 -0.06804849 0.3578864 -0.3655759 6009.75
48079 0.9992385 7.300913 7.485917 1.2949 -0.1044913 -0.1421679 -0.07057792 0.3358129 -0.3369765 6009.875
48080 1.001898 7.321106 7.523387 1.381805 -0.1173861 -0.05937402 -0.07407816 0.2937752 -0.3035079 6010
48081 1.016014 7.343473 7.556923 1.460315 -0.1176957 0.02598294 -0.0767416 0.2313067 -0.2631785 6010.125
48082 1.043616 7.366231 7.588997 1.524722 -0.1067284 0.1025792 -0.07548027 0.1508573 -0.2154082 6010.25
48083 1.088212 7.389085 7.623086 1.576857 -0.08341942 0.1628048 -0.07173599 0.05871247 -0.1639305 6010.375
48084 1.146406 7.40582 7.660514 1.60286 -0.04806227 0.2019344 -0.06626437 -0.03793511 -0.1128689 6010.5
48085 1.212112 7.41169 7.704287 1.59178 -0.003149262 0.2147844 -0.0591762 -0.132194 -0.06635681 6010.625
48086 1.283638 7.40874 7.75398 1.543034 0.0479264 0.2042993 -0.052687 -0.2160345 -0.02951639 6010.75
48087 1.356017 7.39962 7.808367 1.445692 0.09878027 0.1752069 -0.04806941 -0.2833713 -0.00564251 6010.875
48088 1.426433 7.388108 7.862532 1.312572 0.14295 0.1339213 -0.04989231 -0.3308447 0.0004953226 6011
48089 1.492051 7.375766 7.913048 1.157127 0.1751875 0.08636235 -0.05476027 -0.3602067 -0.004834124 6011.125
48090 1.546841 7.364058 7.957839 0.9960093 0.1883706 0.03905867 -0.05531295 -0.3713409 -0.02555602 6011.25
48091 1.584926 7.353328 7.995076 0.8339575 0.1831468 -0.004258207 -0.04853221 -0.3697844 -0.06145567 6011.375
48092 1.604239 7.342563 8.023402 0.6857038 0.1622221 -0.04080163 -0.02510432 -0.3589368 -0.1113385 6011.5
48093 1.605241 7.332694 8.042845 0.5576828 0.1277709 -0.06995697 0.01692176 -0.3404663 -0.1732485 6011.625
48094 1.592098 7.325655 8.055379 0.4482651 0.08401157 -0.09260484 0.07229418 -0.317087 -0.2446111 6011.75
48095 1.571719 7.320087 8.063786 0.3654364 0.03474788 -0.1090728 0.1301074 -0.2915449 -0.3234377 6011.875
48096 1.548207 7.314659 8.072967 0.3071775 -0.01742024 -0.1201568 0.1839186 -0.2670926 -0.4061624 6012
48097 1.52843 7.305724 8.085162 0.2682516 -0.07055971 -0.123826 0.2276459 -0.247897 -0.4919871 6012.125
48098 1.515743 7.29196 8.102127 0.2429691 -0.1231629 -0.122213 0.2568303 -0.2393056 -0.5796058 6012.25
48099 1.509481 7.270799 8.125082 0.2305627 -0.1735507 -0.11324 0.2686494 -0.2383005 -0.6686759 6012.375
48100 1.508434 7.240291 8.156138 0.230805 -0.2199653 -0.09458601 0.2654361 -0.2451263 -0.7557821 6012.5
48101 1.511813 7.199155 8.194774 0.2422411 -0.2608327 -0.06494541 0.2508503 -0.2576691 -0.8377797 6012.625
48102 1.519107 7.147754 8.240649 0.262922 -0.2934457 -0.02383681 0.2276319 -0.2729251 -0.9113567 6012.75
48103 1.52824 7.087718 8.294454 0.291663 -0.3157142 0.02722285 0.197436 -0.2896306 -0.971261 6012.875
48104 1.537113 7.025533 8.355859 0.3273792 -0.3247215 0.08459219 0.1620618 -0.3075812 -1.012737 6013
48105 1.545518 6.968847 8.419044 0.367886 -0.3217654 0.1460467 0.1222225 -0.3264332 -1.029007 6013.125
48106 1.551559 6.916918 8.479247 0.4098039 -0.3055335 0.2046096 0.07958142 -0.3425427 -1.019312 6013.25
48107 1.554209 6.886648 8.533344 0.4510518 -0.278624 0.254979 0.03439248 -0.354237 -0.9914784 6013.375
48108 1.552598 6.875942 8.577986 0.4914702 -0.2445024 0.2912893 -0.01189418 -0.3636928 -0.9497611 6013.5
48109 1.549626 6.877089 8.610528 0.5300394 -0.2056134 0.3126614 -0.05741703 -0.3703219 -0.9000057 6013.625
48110 1.54707 6.892171 8.629469 0.5669343 -0.1642068 0.3159241 -0.09847068 -0.3718511 -0.8488368 6013.75
48111 1.544425 6.922587 8.633552 0.603071 -0.1219598 0.3079506 -0.1327108 -0.3677375 -0.7984618 6013.875
48112 1.540007 6.967301 8.62588 0.6378117 -0.08018925 0.2899792 -0.1607073 -0.3581136 -0.7702304 6014
48113 1.534796 7.026082 8.607076 0.6711755 -0.04110308 0.2653251 -0.1811349 -0.3425296 -0.7623211 6014.125
48114 1.528869 7.096131 8.57694 0.7057508 -0.005339336 0.23462 -0.1939678 -0.3232941 -0.7658955 6014.25
48115 1.522738 7.173275 8.539983 0.7445861 0.02645518 0.203474 -0.2043939 -0.3028018 -0.7785431 6014.375
48116 1.517399 7.252768 8.49998 0.785922 0.05299809 0.1741848 -0.216154 -0.2835412 -0.7998138 6014.5
48117 1.513291 7.329124 8.459785 0.8282997 0.07197223 0.1469555 -0.2301712 -0.2689736 -0.8266023 6014.625
48118 1.509915 7.39777 8.42079 0.872761 0.07717944 0.1222611 -0.2431952 -0.2602298 -0.8593249 6014.75
48119 1.505602 7.455522 8.384103 0.9189911 0.0730145 0.09902787 -0.2596017 -0.2582484 -0.8963658 6014.875
48120 1.498196 7.501787 8.349889 0.9679572 0.05900036 0.07578306 -0.2856119 -0.2616622 -0.937443 6015
48121 1.479106 7.539186 8.317956 1.016933 0.03583746 0.05222332 -0.3160549 -0.2708834 -0.982051 6015.125
48122 1.45563 7.569124 8.288831 1.062561 0.005587977 0.0284728 -0.3449341 -0.2743503 -1.030848 6015.25
48123 1.430648 7.592688 8.263182 1.099083 -0.02998437 0.004686613 -0.369768 -0.2690429 -1.083761 6015.375
48124 1.404586 7.610165 8.243118 1.125286 -0.07128234 -0.01820404 -0.3864823 -0.2491977 -1.14127 6015.5
48125 1.378175 7.62107 8.228571 1.143674 -0.118072 -0.03816363 -0.3966184 -0.2134567 -1.202477 6015.625
48126 1.351529 7.62128 8.217027 1.155152 -0.1688043 -0.05492917 -0.4033542 -0.1616579 -1.264174 6015.75
48127 1.323938 7.612067 8.204963 1.159997 -0.2228465 -0.06365823 -0.4087314 -0.09865227 -1.324775 6015.875
48128 1.294487 7.590339 8.189757 1.156069 -0.2778706 -0.06311139 -0.41559 -0.02946927 -1.383303 6016
48129 1.262682 7.554738 8.169996 1.143693 -0.3319562 -0.05284169 -0.4234817 0.04401521 -1.438008 6016.125
48130 1.229234 7.507708 8.14476 1.12478 -0.3826497 -0.03088688 -0.4292006 0.122032 -1.487448 6016.25
48131 1.195089 7.453394 8.113135 1.101612 -0.4289247 0.004809774 -0.430813 0.205284 -1.531296 6016.375
48132 1.160672 7.396869 8.074803 1.076426 -0.4696784 0.05608007 -0.427469 0.2920522 -1.569869 6016.5
48133 1.126544 7.343139 8.02953 1.050909 -0.5050094 0.1235195 -0.4189284 0.377964 -1.603938 6016.625
48134 1.093468 7.296428 7.978204 1.026365 -0.5368036 0.2081271 -0.4059228 0.4564405 -1.634939 6016.75
48135 1.062211 7.258434 7.922469 1.002867 -0.5680695 0.3088633 -0.3895976 0.5224503 -1.663119 6016.875
48136 1.033182 7.233788 7.865065 0.9797872 -0.6031548 0.4236457 -0.3713142 0.5713685 -1.688847 6017
48137 1.007469 7.220258 7.809727 0.9565806 -0.6438585 0.5516289 -0.352512 0.5962669 -1.71199 6017.125
48138 0.985799 7.214814 7.761497 0.9336509 -0.6920799 0.6895211 -0.3375574 0.6082742 -1.732291 6017.25
48139 0.9689453 7.214838 7.729913 0.9093417 -0.7487701 0.8309099 -0.3270981 0.6143513 -1.743989 6017.375
48140 0.9579256 7.218856 7.72171 0.8847349 -0.8082443 0.9683527 -0.320292 0.6148576 -1.744451 6017.5
48141 0.9525384 7.225175 7.744755 0.8601852 -0.8583509 1.093214 -0.318215 0.6145565 -1.736029 6017.625
48142 0.9508898 7.234675 7.804049 0.8375395 -0.8763347 1.197887 -0.3210686 0.6138124 -1.71698 6017.75
48143 0.9518091 7.247859 7.90098 0.8191759 -0.8733217 1.277104 -0.3281919 0.6157147 -1.68522 6017.875
48144 0.9541379 7.265089 8.02655 0.8043059 -0.8436 1.309404 -0.3389121 0.6229228 -1.634429 6018
48145 0.9589728 7.286558 8.167721 0.7905472 -0.7803751 1.308731 -0.3554821 0.63644 -1.559078 6018.125
48146 0.9657797 7.315537 8.314661 0.7766511 -0.6858542 1.281729 -0.3739718 0.6546718 -1.465168 6018.25
48147 0.9740112 7.351307 8.448711 0.7610245 -0.5668704 1.236006 -0.3917494 0.6760609 -1.371461 6018.375
48148 0.9807475 7.392598 8.561352 0.7443426 -0.4337667 1.175481 -0.4061519 0.6989883 -1.29765 6018.5
48149 0.9851668 7.440758 8.603513 0.7277943 -0.2993762 1.11033 -0.4167784 0.7169885 -1.260209 6018.625
48150 0.9862357 7.496062 8.608671 0.7121134 -0.1753236 1.052286 -0.4234392 0.729003 -1.256087 6018.75
48151 0.9841233 7.559497 8.578811 0.697592 -0.07700671 0.9975992 -0.4258308 0.7307591 -1.258394 6018.875
48152 0.9783082 7.627764 8.521304 0.6842489 -0.01932321 0.9432069 -0.4257516 0.7247548 -1.255596 6019
48153 0.9690955 7.698438 8.442416 0.6730532 -0.008906539 0.8877959 -0.4243936 0.7049119 -1.235839 6019.125
48154 0.9565994 7.767925 8.342794 0.6641532 -0.03181265 0.8295619 -0.4216757 0.6634841 -1.189772 6019.25
48155 0.9415799 7.832179 8.222611 0.657822 -0.08048218 0.7667165 -0.4160941 0.5973321 -1.112954 6019.375
48156 0.9255705 7.887723 8.081598 0.6541844 -0.1460297 0.6985127 -0.4067763 0.5025319 -1.007731 6019.5
48157 0.9100119 7.932143 7.921098 0.6531784 -0.2187966 0.6243768 -0.3945055 0.3770593 -0.8786945 6019.625
48158 0.896587 7.962862 7.744548 0.6544415 -0.2916322 0.5434202 -0.3819596 0.2202657 -0.7299894 6019.75
48159 0.8867279 7.977907 7.554891 0.657403 -0.359764 0.4558386 -0.3707233 0.03815082 -0.5652853 6019.875
48160 0.8816461 7.984379 7.35741 0.6599721 -0.4210686 0.3635266 -0.3603245 -0.1571978 -0.3885424 6020
48161 0.8814697 7.984329 7.164039 0.6615642 -0.4752869 0.269378 -0.3506027 -0.3479704 -0.2047148 6020.125
48162 0.8860532 7.983874 6.986622 0.6620665 -0.5220276 0.1765382 -0.3414948 -0.517805 -0.02064978 6020.25
48163 0.8956241 7.989338 6.83487 0.6612629 -0.5614044 0.08700449 -0.3330185 -0.6471753 0.1575236 6020.375
48164 0.9098197 8.007668 6.707032 0.6594213 -0.5929791 0.001641046 -0.3234968 -0.7326149 0.318916 6020.5
48165 0.9276357 8.031655 6.640966 0.6569838 -0.6170473 -0.07239503 -0.3127735 -0.7702902 0.4540449 6020.625
48166 0.9490407 8.0556 6.627861 0.6545501 -0.6372494 -0.1358877 -0.3012308 -0.7635937 0.5352239 6020.75
48167 0.9737368 8.081668 6.663056 0.6519182 -0.6566653 -0.1921907 -0.2898777 -0.7254462 0.5527179 6020.875
48168 1.001641 8.107532 6.741523 0.6487893 -0.6767234 -0.2411654 -0.2791069 -0.6662213 0.541334 6021
48169 1.032475 8.121763 6.852782 0.6461893 -0.6948555 -0.2805018 -0.2696474 -0.5951645 0.5006722 6021.125
48170 1.066338 8.119989 6.991571 0.6443437 -0.7099332 -0.3146358 -0.2616844 -0.5192093 0.4357002 6021.25
48171 1.102098 8.100306 7.144536 0.6430385 -0.715874 -0.3523429 -0.2546778 -0.4468956 0.3547011 6021.375
48172 1.139834 8.062581 7.293913 0.6412504 -0.7138682 -0.3973431 -0.2481966 -0.3838765 0.2716214 6021.5
48173 1.179489 8.012277 7.43166 0.6380896 -0.7000632 -0.4504634 -0.2423221 -0.333362 0.196086 6021.625
48174 1.219478 7.95934 7.514983 0.6321535 -0.6657157 -0.5110687 -0.2378279 -0.2947113 0.1358194 6021.75
48175 1.26033 7.905864 7.53383 0.6233355 -0.6102583 -0.5754753 -0.2347379 -0.2666459 0.1072139 6021.875
48176 1.301419 7.852813 7.524436 0.6124244 -0.5370092 -0.6353747 -0.2318452 -0.2542367 0.09690598 6022
48177 1.342225 7.798569 7.488368 0.5994338 -0.4501532 -0.6701975 -0.2274835 -0.2543401 0.09913123 6022.125
48178 1.382661 7.744925 7.432542 0.5842054 -0.354982 -0.6805865 -0.2223226 -0.2606126 0.104877 6022.25
48179 1.422439 7.691633 7.363076 0.5680125 -0.2537587 -0.6733385 -0.2171801 -0.2700557 0.1153442 6022.375
48180 1.461972 7.638554 7.281019 0.5511278 -0.1499958 -0.6485783 -0.213095 -0.2789184 0.1295797 6022.5
48181 1.501635 7.58535 7.187574 0.5323757 -0.04481325 -0.6075069 -0.2108559 -0.2888542 0.1487368 6022.625
48182 1.541463 7.533749 7.089403 0.5113945 0.06072224 -0.5519583 -0.2110003 -0.300904 0.171905 6022.75
48183 1.581181 7.484674 6.990814 0.4883522 0.1657658 -0.4842586 -0.2135534 -0.3176587 0.1972126 6022.875
48184 1.62044 7.441289 6.895985 0.4630238 0.2666791 -0.4056354 -0.2178946 -0.3421807 0.2184758 6023
48185 1.662662 7.40146 6.810591 0.4355394 0.3585995 -0.3175885 -0.2224043 -0.3746823 0.2317188 6023.125
48186 1.704714 7.365002 6.736156 0.4052598 0.4382686 -0.2249073 -0.2266618 -0.4043193 0.2386208 6023.25
48187 1.743441 7.32951 6.675502 0.3713452 0.5024648 -0.1339461 -0.2324958 -0.4116561 0.2450796 6023.375
48188 1.777762 7.29663 6.64037 0.3340773 0.5511492 -0.05227808 -0.2400352 -0.396745 0.2563209 6023.5
48189 1.805941 7.267106 6.63144 0.293079 0.5838034 0.01606274 -0.2477339 -0.3608437 0.2784418 6023.625
48190 1.829584 7.242221 6.637691 0.2498154 0.5976398 0.06783728 -0.25541 -0.3050825 0.3195161 6023.75
