"velocity"
"Time Step" "vx etc.."
("Time Step" "vx(point-04-000625)" "vx(point-04-080000)" "vx(point-14-080000)" "vy(point-04-000625)" "vy(point-04-080000)" "vy(point-14-080000)" "vz(point-04-000625)" "vz(point-04-080000)" "vz(point-14-080000)" "flow-time")
50101 -0.1618253 2.620507 1.874471 0.03085692 1.308825 1.026658 0.07669175 0.06141947 -0.6207656 6262.625
50102 -0.1632793 2.632442 1.878377 0.02980439 1.291495 1.032274 0.07736529 0.0394101 -0.6142547 6262.75
50103 -0.1647427 2.645396 1.881887 0.02876211 1.271219 1.037421 0.07803821 0.01900368 -0.6063904 6262.875
50104 -0.1662162 2.65939 1.884964 0.02773071 1.249389 1.042188 0.07870788 -0.001471017 -0.5970659 6263
50105 -0.1676971 2.675088 1.887499 0.02671199 1.226653 1.04667 0.07937308 -0.02285632 -0.5860018 6263.125
50106 -0.1691882 2.69342 1.889481 0.02570789 1.203916 1.050941 0.08003326 -0.0464179 -0.5730668 6263.25
50107 -0.1706891 2.710771 1.890858 0.0247198 1.18211 1.055106 0.08068945 -0.07293902 -0.5581397 6263.375
50108 -0.1722028 2.725152 1.891883 0.02374849 1.162316 1.059316 0.08134112 -0.1032037 -0.5411226 6263.5
50109 -0.1737363 2.736372 1.892613 0.02279389 1.144395 1.063598 0.08198743 -0.1369317 -0.5218179 6263.625
50110 -0.1752935 2.74509 1.893154 0.0218559 1.128664 1.068065 0.08262692 -0.1742 -0.4998834 6263.75
50111 -0.1768726 2.75216 1.893451 0.02093406 1.115837 1.072754 0.08326004 -0.2146463 -0.4752501 6263.875
50112 -0.1784716 2.75845 1.893421 0.02002871 1.104362 1.07777 0.08388722 -0.2570902 -0.4478785 6264
50113 -0.1800866 2.764335 1.89296 0.01914125 1.092873 1.082723 0.08450627 -0.3012777 -0.4178701 6264.125
50114 -0.1817182 2.770373 1.89202 0.01827266 1.080661 1.088042 0.08511749 -0.3432147 -0.3855019 6264.25
50115 -0.183366 2.776308 1.890579 0.0174232 1.067157 1.094151 0.08572136 -0.3805491 -0.3511138 6264.375
50116 -0.1850314 2.78244 1.888572 0.01658843 1.052564 1.101176 0.08632053 -0.4123279 -0.3150466 6264.5
50117 -0.1867153 2.788945 1.886101 0.01576599 1.036932 1.10926 0.08691523 -0.4369447 -0.2776652 6264.625
50118 -0.1884171 2.794412 1.883291 0.01495631 1.020596 1.118381 0.08750473 -0.4565256 -0.2391652 6264.75
50119 -0.1901358 2.798984 1.88018 0.01415983 1.00334 1.128509 0.08808744 -0.4709874 -0.2002055 6264.875
50120 -0.1918711 2.802551 1.876883 0.01337968 0.9852709 1.139572 0.08866233 -0.4811879 -0.1611372 6265
50121 -0.1936191 2.805023 1.873608 0.01262291 0.9655036 1.151572 0.08922867 -0.4875568 -0.1222314 6265.125
50122 -0.1953778 2.806873 1.870645 0.01189379 0.944242 1.164441 0.08978572 -0.4903753 -0.08367175 6265.25
50123 -0.1971479 2.80784 1.868375 0.01119435 0.9217448 1.178239 0.09033252 -0.4909081 -0.04600902 6265.375
50124 -0.1989263 2.806522 1.866687 0.0105272 0.8983499 1.193128 0.09086754 -0.4902983 -0.009539274 6265.5
50125 -0.2007125 2.803448 1.866373 0.009891088 0.8746538 1.208941 0.09138994 -0.4895386 0.02520059 6265.625
50126 -0.2025057 2.799521 1.867415 0.009282154 0.8508351 1.224809 0.09189879 -0.4886332 0.05743689 6265.75
50127 -0.2043064 2.795262 1.869912 0.008702639 0.8279319 1.240952 0.0923937 -0.4879775 0.08681319 6265.875
50128 -0.2061153 2.790974 1.874167 0.008154402 0.8068328 1.257565 0.09287101 -0.48782 0.1128747 6266
50129 -0.2079307 2.78705 1.880626 0.007638824 0.7863862 1.274187 0.09332802 -0.4905819 0.135077 6266.125
50130 -0.2097534 2.783242 1.889582 0.00715546 0.7694685 1.290792 0.09376238 -0.4951886 0.1540505 6266.25
50131 -0.2115806 2.77943 1.901613 0.006703806 0.7580769 1.308114 0.09417608 -0.5010781 0.1685232 6266.375
50132 -0.2134095 2.775548 1.917695 0.006279619 0.7512957 1.322311 0.09457256 -0.5083077 0.1793524 6266.5
50133 -0.2152371 2.771616 1.938167 0.005882502 0.7514905 1.330777 0.09495457 -0.5170292 0.1878481 6266.625
50134 -0.2170638 2.767769 1.962919 0.005513567 0.756061 1.333941 0.09532335 -0.5274925 0.1957203 6266.75
50135 -0.2188884 2.764243 1.991502 0.005175764 0.7642379 1.331 0.0956796 -0.5390142 0.2029365 6266.875
50136 -0.2207142 2.760966 2.023286 0.004868685 0.7767888 1.323501 0.09602151 -0.5518504 0.2096579 6267
50137 -0.2225434 2.757974 2.057763 0.004597588 0.7936623 1.31011 0.09634878 -0.5656818 0.2159846 6267.125
50138 -0.2243789 2.754889 2.094035 0.004363566 0.8152074 1.291551 0.0966602 -0.5799244 0.2223535 6267.25
50139 -0.2262178 2.75126 2.130639 0.004168178 0.8418739 1.2679 0.09695532 -0.5937907 0.2293097 6267.375
50140 -0.2280401 2.74632 2.166612 0.004011073 0.8738514 1.239499 0.09723345 -0.60626 0.2373336 6267.5
50141 -0.2298394 2.7396 2.20094 0.003891778 0.9113322 1.20683 0.09749407 -0.6168266 0.2469297 6267.625
50142 -0.2316149 2.731374 2.232898 0.003811079 0.9546725 1.17008 0.09773821 -0.6248417 0.2583868 6267.75
50143 -0.2333618 2.721786 2.262187 0.003770164 1.004005 1.129606 0.09796564 -0.6306099 0.2719812 6267.875
50144 -0.2350794 2.711038 2.288826 0.003771413 1.059546 1.08599 0.09817521 -0.6338544 0.2873619 6268
50145 -0.2367718 2.699289 2.312682 0.00381507 1.121088 1.039873 0.09836528 -0.6344425 0.3043625 6268.125
50146 -0.2384428 2.68693 2.333968 0.003902785 1.188431 0.9916866 0.09853484 -0.6326246 0.3226304 6268.25
50147 -0.2400958 2.67432 2.352745 0.004037713 1.261125 0.9420494 0.09868234 -0.6273728 0.3417394 6268.375
50148 -0.2417365 2.661892 2.369502 0.004219867 1.338407 0.8913833 0.09880797 -0.6196414 0.361122 6268.5
50149 -0.2433686 2.649746 2.384598 0.004448469 1.419537 0.8402761 0.09891216 -0.6094258 0.3801966 6268.625
50150 -0.2449938 2.638211 2.398625 0.004725819 1.503139 0.7891774 0.09899918 -0.5961798 0.3990895 6268.75
50151 -0.2466185 2.628004 2.412407 0.005052629 1.587982 0.7380784 0.099069 -0.5799526 0.4170376 6268.875
50152 -0.2482483 2.620189 2.426793 0.005426194 1.672635 0.6876518 0.09911988 -0.561112 0.4345047 6269
50153 -0.2498861 2.615861 2.442476 0.005844925 1.755615 0.6379112 0.09915154 -0.5401193 0.4495746 6269.125
50154 -0.2515312 2.614753 2.458436 0.006309695 1.835692 0.5826076 0.09916212 -0.5168775 0.4609076 6269.25
50155 -0.2531847 2.616483 2.472959 0.006844592 1.911119 0.5313975 0.0991512 -0.4924783 0.467787 6269.375
50156 -0.2548416 2.620735 2.486871 0.007504842 1.980135 0.4891491 0.09911973 -0.467754 0.4704375 6269.5
50157 -0.256501 2.62732 2.50102 0.008298583 2.041687 0.4562229 0.09906781 -0.4443629 0.4685483 6269.625
50158 -0.2581618 2.636337 2.51557 0.00922027 2.093723 0.4430644 0.09899609 -0.4226855 0.4637466 6269.75
50159 -0.2598236 2.645828 2.529945 0.01025358 2.141651 0.4377553 0.09890366 -0.4031013 0.4568256 6269.875
50160 -0.2614865 2.654321 2.544442 0.01138711 2.180596 0.4378836 0.09878901 -0.3848204 0.4476089 6270
50161 -0.2631503 2.659642 2.558827 0.0126116 2.210861 0.4433177 0.09865189 -0.3660575 0.4367618 6270.125
50162 -0.2648131 2.663488 2.574316 0.01391935 2.227104 0.4534777 0.09849126 -0.3447083 0.4252376 6270.25
50163 -0.2664758 2.666565 2.591206 0.0153052 2.235411 0.4704312 0.0983056 -0.3197376 0.4129542 6270.375
50164 -0.2681412 2.668383 2.609525 0.01676594 2.237245 0.4949204 0.09809308 -0.2909473 0.4006774 6270.5
50165 -0.2698109 2.668734 2.629784 0.01829822 2.233347 0.5271108 0.09785361 -0.2584875 0.3889461 6270.625
50166 -0.2714881 2.668103 2.651545 0.01989606 2.224732 0.5666149 0.09758857 -0.2231164 0.3777721 6270.75
50167 -0.2731791 2.667535 2.675131 0.0215569 2.21232 0.6134997 0.09729637 -0.1859131 0.3678418 6270.875
50168 -0.2748852 2.667401 2.699342 0.02328175 2.196473 0.6674682 0.09697513 -0.1479004 0.3599215 6271
50169 -0.2766077 2.667327 2.726668 0.02506811 2.177607 0.727805 0.09662379 -0.1100526 0.3547094 6271.125
50170 -0.2783464 2.667287 2.756146 0.02691335 2.156511 0.7930073 0.0962413 -0.0735006 0.3521829 6271.25
50171 -0.2800973 2.666971 2.78599 0.02881504 2.134024 0.8605263 0.0958256 -0.03933293 0.3528824 6271.375
50172 -0.2818558 2.666498 2.818106 0.03077285 2.111035 0.9289851 0.09537503 -0.008748509 0.3557869 6271.5
50173 -0.2836222 2.666194 2.849667 0.03278396 2.088365 1.003313 0.09488722 0.01720346 0.3596811 6271.625
50174 -0.2853967 2.6661 2.878066 0.03484884 2.066638 1.075312 0.09435936 0.03923107 0.3658871 6271.75
50175 -0.2871832 2.666044 2.899573 0.03698129 2.046305 1.135206 0.093785 0.05475407 0.3730235 6271.875
50176 -0.2889822 2.66594 2.91193 0.03921046 2.027622 1.176227 0.093158 0.06414822 0.3785183 6272
50177 -0.2907929 2.665849 2.917641 0.04154638 2.010661 1.193123 0.0924758 0.06723183 0.3823243 6272.125
50178 -0.2926157 2.665588 2.920039 0.04399178 1.995383 1.197841 0.09173524 0.06507213 0.3845218 6272.25
50179 -0.2944358 2.665057 2.920417 0.04654961 1.981629 1.198292 0.09092657 0.05956497 0.3853445 6272.375
50180 -0.2962531 2.663698 2.919196 0.04921933 1.968798 1.196368 0.09004694 0.05105752 0.3840096 6272.5
50181 -0.2980682 2.661448 2.915911 0.05199697 1.956401 1.193249 0.08909734 0.03997666 0.3800765 6272.625
50182 -0.2998908 2.658507 2.909868 0.05487967 1.944146 1.189682 0.0880738 0.02683532 0.3739874 6272.75
50183 -0.3017394 2.654793 2.901301 0.05786483 1.931417 1.186173 0.08697256 0.01223759 0.3661861 6272.875
50184 -0.3036255 2.650289 2.89118 0.06094783 1.91827 1.18275 0.0857919 -0.003478475 0.3567369 6273
50185 -0.3055465 2.6452 2.881456 0.06412398 1.90492 1.179829 0.08453108 -0.02030237 0.3456102 6273.125
50186 -0.3074969 2.639786 2.874296 0.06738586 1.891377 1.177008 0.08319102 -0.03801462 0.3327351 6273.25
50187 -0.3094757 2.634284 2.869949 0.0707245 1.878013 1.173796 0.08177424 -0.05650568 0.3183248 6273.375
50188 -0.3114836 2.629077 2.869654 0.07413159 1.86605 1.169853 0.08028367 -0.07544747 0.3032528 6273.5
50189 -0.3135093 2.624281 2.873811 0.07760151 1.85502 1.165356 0.07872138 -0.0941475 0.2879784 6273.625
50190 -0.3155414 2.619616 2.881284 0.08113134 1.844985 1.159697 0.07708918 -0.112251 0.2728969 6273.75
50191 -0.3175673 2.61513 2.891804 0.08472359 1.836337 1.152488 0.07538915 -0.1293976 0.25882 6273.875
50192 -0.3195817 2.610724 2.904782 0.08837256 1.828847 1.143854 0.07362502 -0.1451929 0.2463504 6274
50193 -0.3215791 2.604753 2.919149 0.09207173 1.822432 1.1339 0.07180171 -0.1592764 0.2360389 6274.125
50194 -0.3235534 2.597234 2.934302 0.09581536 1.817109 1.122671 0.06992172 -0.1714794 0.2281819 6274.25
50195 -0.3255016 2.588344 2.950003 0.09958919 1.812797 1.110167 0.06798957 -0.1818509 0.2230988 6274.375
50196 -0.3274175 2.578305 2.962185 0.1033805 1.809232 1.096835 0.06600799 -0.1907866 0.2207983 6274.5
50197 -0.3292896 2.566819 2.971133 0.1071203 1.806162 1.083472 0.06397864 -0.1982266 0.221157 6274.625
50198 -0.3311122 2.553817 2.97762 0.1108 1.80336 1.07022 0.06190104 -0.2046157 0.2238327 6274.75
50199 -0.3328864 2.538914 2.981501 0.1144295 1.800674 1.056994 0.05977123 -0.2103273 0.2281927 6274.875
50200 -0.3346094 2.521902 2.98171 0.1180314 1.797892 1.043698 0.05758979 -0.2156878 0.2335868 6275
50201 -0.33628 2.502919 2.979553 0.1216211 1.795084 1.030137 0.0553618 -0.2210141 0.2395405 6275.125
50202 -0.3378921 2.482276 2.975455 0.1252038 1.792602 1.01617 0.05309375 -0.2267618 0.2456298 6275.25
50203 -0.3394433 2.460059 2.969829 0.1287806 1.790838 1.001747 0.05079013 -0.23339 0.2515199 6275.375
50204 -0.3409335 2.436469 2.963025 0.1323478 1.790445 0.9869642 0.04845884 -0.2412978 0.2570786 6275.5
50205 -0.3423409 2.41179 2.955374 0.1358976 1.792015 0.9719089 0.04610666 -0.250874 0.2622161 6275.625
50206 -0.343639 2.386404 2.947181 0.139423 1.796368 0.9566182 0.04373663 -0.2623087 0.2669229 6275.75
50207 -0.3448223 2.360576 2.938678 0.1429217 1.804014 0.9409555 0.04135153 -0.275894 0.2712289 6275.875
50208 -0.3458929 2.334397 2.929996 0.1463968 1.815303 0.9247878 0.03895549 -0.2923948 0.2751865 6276
50209 -0.3468526 2.308307 2.921194 0.1498455 1.830366 0.9080578 0.03654928 -0.3120604 0.2788763 6276.125
50210 -0.3476993 2.282969 2.912297 0.1532601 1.84923 0.890783 0.0341325 -0.3348649 0.2824147 6276.25
50211 -0.3484422 2.259302 2.903294 0.1566336 1.871726 0.873039 0.03170897 -0.3605038 0.2859303 6276.375
50212 -0.349081 2.237796 2.894059 0.1599036 1.897337 0.8549773 0.02928703 -0.3885896 0.2895509 6276.5
50213 -0.3496163 2.21833 2.884506 0.1629876 1.925879 0.8368046 0.02687475 -0.4183971 0.2932015 6276.625
50214 -0.350049 2.200863 2.874676 0.1657683 1.956327 0.8187643 0.02447359 -0.4489871 0.2969105 6276.75
50215 -0.3503802 2.185385 2.864411 0.1680489 1.987443 0.801345 0.02209125 -0.4794921 0.3009512 6276.875
50216 -0.3506154 2.172798 2.853375 0.1698552 2.018428 0.7845719 0.01973961 -0.5087292 0.3053101 6277
50217 -0.350758 2.163866 2.841345 0.1712737 2.051729 0.7687263 0.01742685 -0.5359272 0.3097453 6277.125
50218 -0.3508058 2.158264 2.828059 0.1723969 2.086983 0.7542647 0.01516616 -0.5605157 0.3142582 6277.25
50219 -0.3507525 2.154626 2.813351 0.1733103 2.120325 0.7417123 0.01296257 -0.5821291 0.3189823 6277.375
50220 -0.3505948 2.152725 2.797044 0.1740849 2.15006 0.7315343 0.01081875 -0.6011415 0.3241203 6277.5
50221 -0.350331 2.151278 2.779636 0.1747751 2.175523 0.7240172 0.008742747 -0.6178076 0.3298401 6277.625
50222 -0.3499583 2.150246 2.761396 0.1754209 2.196919 0.7193538 0.006741986 -0.6320526 0.3360426 6277.75
50223 -0.3494807 2.149635 2.742419 0.1760508 2.212612 0.7182778 0.004831953 -0.6442448 0.3426047 6277.875
50224 -0.3489251 2.14923 2.723008 0.1766967 2.222121 0.7190895 0.003023797 -0.6546156 0.3496093 6278
50225 -0.3483211 2.148198 2.703543 0.1773897 2.227765 0.7212574 0.001322163 -0.6633331 0.3571603 6278.125
50226 -0.3476816 2.146324 2.684118 0.1781419 2.231264 0.725265 -0.0002656421 -0.6703106 0.3656374 6278.25
50227 -0.3470032 2.144053 2.665511 0.1789698 2.23419 0.7310743 -0.001725275 -0.6754321 0.3751529 6278.375
50228 -0.3462643 2.141897 2.648239 0.1798744 2.236947 0.738459 -0.00305357 -0.6784689 0.3853129 6278.5
50229 -0.3454446 2.140057 2.631322 0.1808586 2.239701 0.7473534 -0.004250888 -0.6795802 0.3960973 6278.625
50230 -0.3445386 2.138674 2.61502 0.1819199 2.242554 0.7576463 -0.005315508 -0.6803249 0.4079503 6278.75
50231 -0.3435211 2.137569 2.599728 0.1830599 2.245521 0.769524 -0.006247855 -0.6806957 0.4207885 6278.875
50232 -0.3423608 2.136416 2.585423 0.1842877 2.248334 0.7831858 -0.007048456 -0.6809921 0.4342692 6279
50233 -0.3410519 2.134856 2.572095 0.1856089 2.25067 0.7990496 -0.007714996 -0.6810992 0.4482818 6279.125
50234 -0.3395816 2.132797 2.559844 0.1870085 2.252649 0.8171217 -0.008221469 -0.6810771 0.4624251 6279.25
50235 -0.3379312 2.130263 2.548762 0.1884715 2.25438 0.8370373 -0.008561888 -0.6808994 0.4761415 6279.375
50236 -0.336084 2.127395 2.539033 0.1899944 2.255839 0.8586596 -0.008739978 -0.6804812 0.4879951 6279.5
50237 -0.3340422 2.124472 2.530718 0.1915849 2.256984 0.8817297 -0.00876659 -0.6797406 0.4967074 6279.625
50238 -0.3318063 2.12181 2.523651 0.1932449 2.257599 0.9059833 -0.008657375 -0.6781855 0.5026637 6279.75
50239 -0.3294021 2.119765 2.517785 0.1949465 2.257368 0.9310855 -0.008449879 -0.6749948 0.5067252 6279.875
50240 -0.326838 2.11869 2.513464 0.1966721 2.255927 0.9565216 -0.008157846 -0.6707137 0.5092491 6280
50241 -0.3241281 2.118767 2.510907 0.1984063 2.252974 0.9819314 -0.007788392 -0.6656188 0.5104528 6280.125
50242 -0.3212802 2.120222 2.509884 0.2001378 2.248197 1.007427 -0.007336854 -0.6597062 0.5111774 6280.25
50243 -0.3182836 2.123315 2.510394 0.2018666 2.241498 1.032879 -0.006774059 -0.6530721 0.5111098 6280.375
50244 -0.3151456 2.128188 2.512617 0.2036069 2.232795 1.058199 -0.0060609 -0.6457093 0.5101039 6280.5
50245 -0.3118351 2.134755 2.516783 0.2053167 2.221865 1.083042 -0.005180456 -0.6376322 0.5081258 6280.625
50246 -0.3082885 2.142617 2.522897 0.2069622 2.208541 1.107487 -0.004128559 -0.6287686 0.504647 6280.75
50247 -0.3044723 2.151438 2.532125 0.208526 2.192873 1.131656 -0.002905107 -0.6190148 0.4995331 6280.875
50248 -0.3003708 2.161056 2.544169 0.2100017 2.174841 1.155755 -0.001507118 -0.6085221 0.4928284 6281
50249 -0.2959902 2.171227 2.557274 0.2113902 2.154457 1.180034 6.311305e-05 -0.59767 0.4843179 6281.125
50250 -0.2913289 2.181936 2.570778 0.2126966 2.131764 1.203824 0.00180556 -0.5867541 0.4735102 6281.25
50251 -0.2863648 2.193145 2.583723 0.2139261 2.106796 1.226564 0.003729861 -0.5758213 0.4614161 6281.375
50252 -0.2810901 2.204804 2.595517 0.2150801 2.079677 1.248193 0.00584574 -0.5648204 0.4488803 6281.5
50253 -0.2755314 2.217071 2.606175 0.2161677 2.050577 1.268609 0.008151612 -0.5536107 0.4366721 6281.625
50254 -0.2696774 2.229968 2.614923 0.2171989 2.019734 1.287666 0.0106555 -0.5421148 0.4255169 6281.75
50255 -0.2635037 2.243571 2.621312 0.2182169 1.987357 1.305663 0.01336062 -0.5301002 0.4161587 6281.875
50256 -0.2569816 2.257948 2.625265 0.2192253 1.953693 1.322925 0.01628862 -0.5174383 0.40922 6282
50257 -0.2500696 2.273142 2.626711 0.2202208 1.919039 1.339781 0.01945761 -0.5041952 0.4046512 6282.125
50258 -0.2426774 2.289069 2.62535 0.2211717 1.883684 1.356439 0.02285304 -0.4904925 0.4027686 6282.25
50259 -0.2347849 2.305646 2.621551 0.2220722 1.848104 1.37315 0.02644806 -0.4764064 0.4015815 6282.375
50260 -0.226408 2.322668 2.615681 0.2229242 1.813205 1.39024 0.03022463 -0.4619665 0.4014335 6282.5
50261 -0.217576 2.340076 2.607726 0.223683 1.779774 1.40797 0.03414465 -0.4473142 0.4022294 6282.625
50262 -0.2083143 2.357813 2.597885 0.2242925 1.748529 1.426678 0.03817583 -0.4321702 0.4033222 6282.75
50263 -0.1986064 2.375719 2.586442 0.2247387 1.716506 1.446748 0.04231517 -0.4172931 0.4041763 6282.875
50264 -0.1884071 2.393556 2.573812 0.2250372 1.688961 1.467962 0.04658259 -0.4027304 0.4044995 6283
50265 -0.1776736 2.410978 2.560575 0.2252331 1.667705 1.490014 0.05099736 -0.3884678 0.4040006 6283.125
50266 -0.1664254 2.428251 2.547172 0.2253798 1.651944 1.512574 0.05556361 -0.3745074 0.4022758 6283.25
50267 -0.1546647 2.445526 2.534012 0.2254968 1.641187 1.535303 0.06029772 -0.3608926 0.3985698 6283.375
50268 -0.1420846 2.463109 2.521141 0.2255782 1.636868 1.557907 0.06523994 -0.3470321 0.3923014 6283.5
50269 -0.1287259 2.480891 2.508243 0.2257202 1.635496 1.580099 0.07037392 -0.332968 0.3825991 6283.625
50270 -0.1148656 2.498995 2.49537 0.2259314 1.636632 1.601414 0.07565152 -0.3189504 0.3701593 6283.75
50271 -0.1008061 2.517772 2.482619 0.2262245 1.640183 1.621534 0.08109142 -0.3050759 0.3557752 6283.875
50272 -0.08670907 2.537171 2.470509 0.2266396 1.645312 1.640158 0.08674885 -0.291198 0.3395351 6284
50273 -0.07270733 2.557182 2.459413 0.2271865 1.651409 1.65693 0.0925196 -0.2776474 0.321089 6284.125
50274 -0.0588497 2.577852 2.449324 0.2278486 1.65753 1.671573 0.0984176 -0.2648943 0.3004976 6284.25
50275 -0.04518813 2.599139 2.440213 0.2285758 1.662986 1.684119 0.1044176 -0.2533134 0.2778918 6284.375
50276 -0.03185346 2.621149 2.43191 0.2293428 1.668311 1.694198 0.1104477 -0.2434249 0.2534677 6284.5
50277 -0.01894971 2.643767 2.424292 0.2301217 1.670811 1.701999 0.1164486 -0.2354697 0.2272821 6284.625
50278 -0.006472214 2.667047 2.417176 0.2309036 1.669809 1.707761 0.1223712 -0.2291969 0.1992873 6284.75
50279 0.005636595 2.690501 2.410012 0.2317103 1.665841 1.711505 0.1282413 -0.2248202 0.1696802 6284.875
50280 0.01679238 2.713775 2.402023 0.2324227 1.656777 1.713792 0.1341145 -0.2222465 0.1389494 6285
50281 0.02724692 2.736687 2.392641 0.2330659 1.645668 1.716035 0.1399782 -0.2210764 0.1074648 6285.125
50282 0.03723799 2.759012 2.381442 0.2336975 1.633515 1.719239 0.1457012 -0.221159 0.07586473 6285.25
50283 0.04676414 2.78073 2.368214 0.2344692 1.620002 1.723679 0.1511127 -0.2223868 0.04446458 6285.375
50284 0.05557844 2.80203 2.352883 0.2354554 1.605607 1.729524 0.1561592 -0.223939 0.0133983 6285.5
50285 0.06350297 2.822713 2.335403 0.2365526 1.591009 1.737361 0.1607297 -0.2250171 -0.01742884 6285.625
50286 0.07049412 2.842848 2.316035 0.2377207 1.576327 1.747041 0.1648162 -0.2249434 -0.04946925 6285.75
50287 0.07670908 2.862232 2.294958 0.2389273 1.561703 1.758713 0.1684636 -0.223085 -0.0793234 6285.875
50288 0.08241759 2.880476 2.272854 0.2401355 1.547028 1.772335 0.1715166 -0.2186055 -0.1053791 6286
50289 0.08771657 2.89713 2.250518 0.2413268 1.531978 1.788426 0.1739574 -0.2109398 -0.1271986 6286.125
50290 0.09249891 2.91191 2.228765 0.2424625 1.516336 1.805387 0.1757156 -0.1998843 -0.1447302 6286.25
