"velocity"
"Time Step" "vx etc.."
("Time Step" "vx(point-04-000625)" "vx(point-04-080000)" "vx(point-14-080000)" "vy(point-04-000625)" "vy(point-04-080000)" "vy(point-14-080000)" "vz(point-04-000625)" "vz(point-04-080000)" "vz(point-14-080000)" "flow-time")
48001 0.3910915 5.797648 4.726899 -1.093047 -0.02266433 0.6772392 -0.1690273 -0.4196049 -0.3025135 6000.125
48002 0.376568 5.785282 4.740358 -1.08226 -0.02581313 0.6560718 -0.1789213 -0.4094053 -0.3363714 6000.25
48003 0.3610744 5.76989 4.760824 -1.071893 -0.02581619 0.6263287 -0.1875365 -0.3969811 -0.3682868 6000.375
48004 0.3446615 5.750529 4.786989 -1.062062 -0.02313565 0.5882564 -0.1948244 -0.382944 -0.3987167 6000.5
48005 0.3275411 5.727114 4.816409 -1.052543 -0.01827864 0.5425008 -0.2008393 -0.3678304 -0.4278344 6000.625
48006 0.3098505 5.698751 4.846379 -1.04283 -0.0118634 0.4902081 -0.2057703 -0.3518362 -0.4560396 6000.75
48007 0.2917243 5.663567 4.874031 -1.03275 -0.004508477 0.4328493 -0.209736 -0.3352668 -0.4827355 6000.875
48008 0.2732115 5.622422 4.897073 -1.022276 0.003207473 0.3726399 -0.2126393 -0.3183248 -0.5084607 6001
48009 0.2544244 5.576301 4.914754 -1.011442 0.01043827 0.3114619 -0.2144161 -0.3017531 -0.5338826 6001.125
48010 0.2355208 5.526865 4.924415 -1.000242 0.01639729 0.2509221 -0.2152903 -0.2862064 -0.5566656 6001.25
48011 0.2160646 5.475508 4.927387 -0.9885844 0.02038638 0.1950162 -0.2155297 -0.2719384 -0.57621 6001.375
48012 0.1967007 5.423803 4.925833 -0.976298 0.02254581 0.1452937 -0.2153113 -0.2594473 -0.5927007 6001.5
48013 0.1779139 5.372723 4.922628 -0.9632221 0.02312931 0.1031018 -0.2147717 -0.2483562 -0.606531 6001.625
48014 0.1600952 5.323651 4.921048 -0.9490522 0.02264323 0.06997078 -0.2144223 -0.2399646 -0.6115357 6001.75
48015 0.143479 5.277967 4.923421 -0.9336693 0.0225772 0.04546937 -0.2142269 -0.2346842 -0.6111192 6001.875
48016 0.1282514 5.23614 4.931052 -0.917329 0.0236035 0.02902806 -0.2136243 -0.2318848 -0.6042715 6002
48017 0.1142357 5.198502 4.944416 -0.9001923 0.02578443 0.02070304 -0.2123948 -0.2302012 -0.5883925 6002.125
48018 0.10203 5.164916 4.963265 -0.8823941 0.0290394 0.01993546 -0.2104711 -0.2290318 -0.5628082 6002.25
48019 0.09174354 5.134756 4.985304 -0.8640286 0.033291 0.02292268 -0.2078546 -0.2276644 -0.5265495 6002.375
48020 0.08285838 5.107741 5.008558 -0.845155 0.03868944 0.02840955 -0.2045331 -0.2250457 -0.4798661 6002.5
48021 0.07520652 5.083271 5.031784 -0.825999 0.04533843 0.03580557 -0.2005758 -0.2211437 -0.4234333 6002.625
48022 0.06867979 5.061399 5.053627 -0.8068066 0.05261702 0.04472703 -0.1960681 -0.2145001 -0.3578023 6002.75
48023 0.06326075 5.042358 5.073202 -0.7877792 0.05998198 0.05438602 -0.1911136 -0.2040153 -0.2835955 6002.875
48024 0.05903998 5.024851 5.089664 -0.7690361 0.06694656 0.06495045 -0.1857289 -0.1893824 -0.2020208 6003
48025 0.05594959 5.010574 5.103017 -0.7505828 0.0727694 0.0759417 -0.1795614 -0.1698173 -0.1137739 6003.125
48026 0.05380412 5.000182 5.113577 -0.7326738 0.07717285 0.08612572 -0.17252 -0.1455531 -0.02316688 6003.25
48027 0.05280433 4.993484 5.121459 -0.715596 0.07877751 0.09599963 -0.164986 -0.117201 0.07270854 6003.375
48028 0.05303356 4.988651 5.129179 -0.6995337 0.07823763 0.1037943 -0.1570655 -0.08555005 0.1548227 6003.5
48029 0.05451966 4.984367 5.14006 -0.6846202 0.07624346 0.1049443 -0.1487213 -0.05129759 0.1995208 6003.625
48030 0.05731576 4.979986 5.156293 -0.6708812 0.07374007 0.1021471 -0.140077 -0.01473916 0.214686 6003.75
48031 0.06133401 4.973822 5.17966 -0.6587947 0.07166883 0.09519094 -0.1308367 0.02204714 0.2148868 6003.875
48032 0.06655674 4.964379 5.212688 -0.6485125 0.0707908 0.08404344 -0.1205798 0.05737115 0.203607 6004
48033 0.0730011 4.951185 5.253633 -0.6400514 0.07264709 0.06929348 -0.1093386 0.08831222 0.181749 6004.125
48034 0.08072303 4.934895 5.300485 -0.6334777 0.079461 0.05084469 -0.097131 0.1125098 0.1504726 6004.25
48035 0.08994322 4.917176 5.353121 -0.6287965 0.09182865 0.02919516 -0.08384598 0.1309794 0.1122227 6004.375
48036 0.1006815 4.90075 5.410317 -0.6260865 0.1105615 0.00611409 -0.06926594 0.1392573 0.06997865 6004.5
48037 0.1128274 4.884308 5.470841 -0.6251311 0.1354377 -0.01679741 -0.05329786 0.1366849 0.02760509 6004.625
48038 0.126228 4.872817 5.532504 -0.6252658 0.1678689 -0.03833898 -0.03596884 0.1256832 -0.01191565 6004.75
48039 0.1408644 4.867571 5.592836 -0.6271368 0.2100852 -0.05735087 -0.01713982 0.1066349 -0.04790298 6004.875
48040 0.1564407 4.867651 5.649055 -0.6310353 0.2610965 -0.0719777 0.003269532 0.07918108 -0.0784483 6005
48041 0.1730334 4.873723 5.699168 -0.6366526 0.3179839 -0.08050586 0.02529569 0.04436318 -0.1033267 6005.125
48042 0.1913759 4.888506 5.741607 -0.6443771 0.3779788 -0.08298184 0.04900119 0.004791507 -0.1233018 6005.25
48043 0.2118273 4.913272 5.774026 -0.6538203 0.4379637 -0.08191203 0.07410674 -0.03621079 -0.1403552 6005.375
48044 0.2348537 4.947904 5.795756 -0.6648449 0.4955974 -0.08077671 0.1003966 -0.07684476 -0.1566808 6005.5
48045 0.2606893 4.99162 5.80171 -0.677286 0.550033 -0.08099666 0.1291864 -0.1148931 -0.1748937 6005.625
48046 0.2896939 5.043345 5.800365 -0.6914309 0.5882969 -0.08515038 0.1602284 -0.148801 -0.1957722 6005.75
48047 0.3218941 5.102612 5.792914 -0.706967 0.6075455 -0.09203541 0.1914766 -0.1773705 -0.2198056 6005.875
48048 0.3572989 5.166713 5.780764 -0.7227538 0.6059191 -0.1024657 0.2232041 -0.2006981 -0.2470064 6006
48049 0.3961005 5.232791 5.765672 -0.7376784 0.5886437 -0.1158589 0.2522534 -0.2200977 -0.2756092 6006.125
48050 0.4392678 5.297502 5.750437 -0.7507333 0.5571266 -0.1312373 0.2748678 -0.2334106 -0.3037547 6006.25
48051 0.4876155 5.357986 5.736952 -0.7620097 0.5145657 -0.1474389 0.2904695 -0.241182 -0.3303614 6006.375
48052 0.5405677 5.413676 5.726645 -0.7720557 0.4657241 -0.1629537 0.3009917 -0.2432097 -0.3544861 6006.5
48053 0.5966097 5.46328 5.722091 -0.781244 0.4151892 -0.1759923 0.3059882 -0.238045 -0.3759868 6006.625
48054 0.6558067 5.505142 5.720841 -0.7892413 0.3670014 -0.1833677 0.3042907 -0.2250671 -0.3947992 6006.75
48055 0.7184873 5.539752 5.722869 -0.7954744 0.3226531 -0.1846407 0.2981123 -0.2033127 -0.4117637 6006.875
48056 0.7824244 5.567638 5.727575 -0.7999398 0.2859722 -0.1794415 0.2876455 -0.1742347 -0.4278319 6007
48057 0.845089 5.590266 5.734436 -0.8030992 0.2593209 -0.1677907 0.2739627 -0.1378352 -0.4431748 6007.125
48058 0.9042825 5.614789 5.742058 -0.8053156 0.2437285 -0.1497975 0.2574614 -0.09625981 -0.4586873 6007.25
48059 0.9583134 5.646493 5.749537 -0.8068324 0.2356227 -0.1262196 0.2387421 -0.05343936 -0.4749081 6007.375
48060 1.004709 5.693146 5.756413 -0.8081787 0.2325521 -0.09851474 0.2176857 -0.008969856 -0.4919481 6007.5
48061 1.041628 5.75884 5.760557 -0.8100447 0.2295522 -0.06753967 0.1916185 0.02021202 -0.5099122 6007.625
48062 1.068735 5.8448 5.76074 -0.813056 0.2252086 -0.03339998 0.1611606 0.02913801 -0.5285974 6007.75
48063 1.082224 5.951665 5.757433 -0.8185502 0.2196398 0.003415157 0.1285539 0.01631821 -0.5464735 6007.875
48064 1.083755 6.076219 5.750129 -0.8278944 0.214755 0.04256756 0.09583241 -0.02190826 -0.5623351 6008
48065 1.077292 6.213221 5.738299 -0.8403789 0.2121762 0.08291458 0.06413517 -0.08831589 -0.5746005 6008.125
48066 1.065851 6.353618 5.724473 -0.8547264 0.2135434 0.1232732 0.03404478 -0.1827028 -0.5804227 6008.25
48067 1.051444 6.486755 5.709414 -0.8713682 0.223206 0.1628505 0.006169804 -0.2969522 -0.5815833 6008.375
48068 1.035442 6.612716 5.693594 -0.8900163 0.2435345 0.2017445 -0.01946053 -0.4170763 -0.5775691 6008.5
48069 1.018041 6.710239 5.67662 -0.9092041 0.2790373 0.2401953 -0.0435187 -0.5222889 -0.5669278 6008.625
48070 0.9993106 6.749326 5.657336 -0.927797 0.3334888 0.2784276 -0.06588838 -0.6001073 -0.5512967 6008.75
48071 0.980259 6.757655 5.635496 -0.9455168 0.4048217 0.3184478 -0.08624201 -0.6464005 -0.5320175 6008.875
48072 0.9615923 6.743092 5.61014 -0.9621029 0.4864828 0.3564455 -0.1046969 -0.6613333 -0.5105977 6009
48073 0.943406 6.707046 5.581192 -0.9735947 0.5665501 0.3884073 -0.1216642 -0.6478844 -0.4878168 6009.125
48074 0.9251791 6.653301 5.547268 -0.9777265 0.6403869 0.4134334 -0.1374889 -0.6217228 -0.4632439 6009.25
48075 0.906524 6.59872 5.507919 -0.978754 0.7050765 0.4302111 -0.1525186 -0.5857906 -0.4363724 6009.375
48076 0.8874686 6.55202 5.462559 -0.9781902 0.7581465 0.4386832 -0.1677448 -0.5452161 -0.407125 6009.5
48077 0.8673232 6.517519 5.412402 -0.976212 0.7907382 0.4434561 -0.1838754 -0.5043975 -0.3762135 6009.625
48078 0.8456774 6.499481 5.359029 -0.9721175 0.8048249 0.4434743 -0.200549 -0.4800823 -0.3441001 6009.75
48079 0.8223565 6.493438 5.304277 -0.9657437 0.8073984 0.439081 -0.2167272 -0.4751016 -0.3116285 6009.875
48080 0.7973946 6.493637 5.249544 -0.9572228 0.8027057 0.4310161 -0.2323706 -0.4850587 -0.2797646 6010
48081 0.7709303 6.499953 5.195991 -0.9475745 0.7921737 0.4203255 -0.248062 -0.502879 -0.2489981 6010.125
48082 0.7428694 6.508805 5.144699 -0.9375514 0.776243 0.4076883 -0.2639745 -0.5259453 -0.2193712 6010.25
48083 0.7134578 6.51503 5.096162 -0.9275622 0.7539586 0.3936776 -0.2798807 -0.5389597 -0.1905357 6010.375
48084 0.6826097 6.514175 5.051139 -0.9174365 0.7205381 0.3785817 -0.2954079 -0.5360327 -0.1620805 6010.5
48085 0.6502834 6.507634 5.01018 -0.9069216 0.6711483 0.3628222 -0.3117235 -0.5203834 -0.1336624 6010.625
48086 0.6167456 6.493498 4.973894 -0.8960404 0.6031423 0.347011 -0.3284758 -0.4929137 -0.1046528 6010.75
48087 0.5819965 6.467283 4.942522 -0.8843632 0.51687 0.3314775 -0.3447117 -0.4557406 -0.07466225 6010.875
48088 0.5460689 6.427598 4.915935 -0.8716182 0.4113697 0.3161966 -0.3596299 -0.4126971 -0.04261639 6011
48089 0.5093753 6.376088 4.893758 -0.8580997 0.2893187 0.3005513 -0.3721878 -0.3667712 -0.008564773 6011.125
48090 0.4723028 6.313256 4.875867 -0.8441092 0.156578 0.2835863 -0.3817791 -0.3207145 0.02585547 6011.25
48091 0.4349546 6.243269 4.862361 -0.829803 0.01992886 0.2652186 -0.388625 -0.2781216 0.05842441 6011.375
48092 0.3970803 6.165458 4.854354 -0.8149828 -0.1113286 0.2460645 -0.392548 -0.2412224 0.0881153 6011.5
48093 0.3595073 6.083806 4.849697 -0.7987199 -0.2309542 0.2271241 -0.3922954 -0.2177877 0.1138031 6011.625
48094 0.3242503 6.004103 4.846923 -0.7811832 -0.3303904 0.2139196 -0.3883566 -0.2119882 0.1345949 6011.75
48095 0.2920188 5.933343 4.845672 -0.7632957 -0.4070287 0.2106431 -0.3814118 -0.2180804 0.1499014 6011.875
48096 0.2632749 5.875157 4.845517 -0.7451841 -0.446687 0.2127278 -0.3721359 -0.2330138 0.1599284 6012
48097 0.2379465 5.84424 4.846894 -0.726849 -0.4538187 0.2206508 -0.3616015 -0.2529364 0.1651782 6012.125
48098 0.2157179 5.836303 4.852445 -0.7087414 -0.4348827 0.2357481 -0.3503321 -0.2746342 0.1643004 6012.25
48099 0.1970244 5.843372 4.863661 -0.6904364 -0.3984944 0.2590043 -0.3387726 -0.2959448 0.1595132 6012.375
48100 0.1813162 5.860002 4.883913 -0.6720566 -0.3483905 0.2906275 -0.3271087 -0.3190012 0.1502729 6012.5
48101 0.1682684 5.884151 4.914469 -0.6537072 -0.2899324 0.3307374 -0.3155124 -0.3458851 0.1334362 6012.625
48102 0.1576787 5.911819 4.956211 -0.6350838 -0.2256562 0.3774603 -0.3037711 -0.3762009 0.1100081 6012.75
48103 0.1490846 5.93881 5.009434 -0.6160363 -0.1555081 0.4279583 -0.2916216 -0.4084469 0.08145264 6012.875
48104 0.1421627 5.961723 5.074206 -0.5965959 -0.0798028 0.4774041 -0.2791301 -0.440804 0.04837357 6013
48105 0.136836 5.979042 5.152733 -0.576723 0.001802809 0.52033 -0.2663331 -0.4712716 0.01276216 6013.125
48106 0.1329908 5.990491 5.24471 -0.5566928 0.08861787 0.5518852 -0.2532467 -0.4987687 -0.02291632 6013.25
48107 0.1301646 5.99815 5.347715 -0.5366945 0.1751473 0.5580914 -0.2398084 -0.5173488 -0.0568453 6013.375
48108 0.1281876 6.003139 5.458167 -0.5169073 0.2578823 0.545788 -0.2261612 -0.5246481 -0.09192061 6013.5
48109 0.1270274 6.010767 5.570541 -0.4975588 0.3315037 0.5119971 -0.2124809 -0.5182537 -0.1221583 6013.625
48110 0.1266127 6.020453 5.679738 -0.4787755 0.3909576 0.46014 -0.198882 -0.5039403 -0.1369528 6013.75
48111 0.1268723 6.031959 5.782159 -0.4605066 0.4349091 0.3951431 -0.1854791 -0.4820568 -0.1416921 6013.875
48112 0.1278228 6.046649 5.872764 -0.4426682 0.4530854 0.3233528 -0.1722329 -0.4549038 -0.1407226 6014
48113 0.1295343 6.064057 5.948487 -0.4252953 0.4478547 0.2514667 -0.1591176 -0.4263308 -0.1361451 6014.125
48114 0.1320383 6.084997 6.006784 -0.4084457 0.4234436 0.1888061 -0.1460989 -0.404926 -0.1279025 6014.25
48115 0.1353537 6.108401 6.0469 -0.3921029 0.3855046 0.1376868 -0.133087 -0.3953957 -0.1185085 6014.375
48116 0.1394009 6.132761 6.070213 -0.3762127 0.3384845 0.1108339 -0.1199766 -0.3972267 -0.1122399 6014.5
48117 0.1442507 6.156877 6.076275 -0.3607289 0.2867046 0.1093046 -0.1071516 -0.408957 -0.1098331 6014.625
48118 0.1498883 6.179184 6.073335 -0.3456638 0.2350346 0.1249608 -0.09480371 -0.4295745 -0.112297 6014.75
48119 0.1562138 6.197711 6.068409 -0.3310159 0.1870469 0.1560098 -0.08273221 -0.4585758 -0.1204757 6014.875
48120 0.1630728 6.21173 6.064989 -0.3167775 0.1455114 0.1990712 -0.07073245 -0.4937294 -0.1345596 6015
48121 0.1704317 6.222369 6.065389 -0.302898 0.1117468 0.2516215 -0.05885424 -0.532312 -0.1549093 6015.125
48122 0.1783281 6.227128 6.07085 -0.2893359 0.08633599 0.3103942 -0.0471561 -0.5738205 -0.1811542 6015.25
48123 0.1867535 6.228407 6.080733 -0.276039 0.06777398 0.372605 -0.03569153 -0.6064612 -0.2143346 6015.375
48124 0.1956443 6.22718 6.093037 -0.2629153 0.05698183 0.4356345 -0.02451189 -0.626321 -0.2547887 6015.5
48125 0.2049742 6.224305 6.10613 -0.2499036 0.05352369 0.4972481 -0.01366769 -0.6326417 -0.3028974 6015.625
48126 0.2147335 6.220022 6.120138 -0.2369659 0.05787688 0.5554463 -0.003145063 -0.627728 -0.355256 6015.75
48127 0.2248886 6.216085 6.129792 -0.2240699 0.06935868 0.6071312 0.007116716 -0.6106516 -0.4079556 6015.875
48128 0.2353529 6.212138 6.130951 -0.2111841 0.08749971 0.6519166 0.01719713 -0.5821151 -0.4622592 6016
48129 0.246081 6.208209 6.125306 -0.1982715 0.1092064 0.6875787 0.02704769 -0.5437986 -0.5024817 6016.125
48130 0.257058 6.202562 6.113384 -0.1852379 0.133276 0.7140304 0.03654447 -0.4982031 -0.5250224 6016.25
48131 0.2682677 6.194257 6.097475 -0.1720353 0.1603093 0.7288188 0.04572929 -0.4487919 -0.5320753 6016.375
48132 0.2796441 6.180758 6.081337 -0.1587008 0.1880678 0.7285694 0.05491905 -0.3968705 -0.531636 6016.5
48133 0.2911445 6.159239 6.06436 -0.1452718 0.2148364 0.7204805 0.06421019 -0.341272 -0.5244602 6016.625
48134 0.302749 6.126674 6.049872 -0.1317783 0.2381137 0.705395 0.07361596 -0.2830988 -0.5100994 6016.75
48135 0.314461 6.082678 6.042316 -0.1182304 0.2512617 0.6858175 0.08310866 -0.2243053 -0.4899034 6016.875
48136 0.3262339 6.028512 6.041193 -0.1046355 0.2536616 0.6655354 0.09256186 -0.1657821 -0.4642839 6017
48137 0.3379861 5.965419 6.046405 -0.09131494 0.2451797 0.6462866 0.1017442 -0.1092145 -0.4342351 6017.125
48138 0.3496583 5.895906 6.057128 -0.07816173 0.2235377 0.6294792 0.1105258 -0.05294466 -0.4002302 6017.25
48139 0.3612139 5.821219 6.070649 -0.06500898 0.1870885 0.614045 0.1188614 -0.001437289 -0.3641132 6017.375
48140 0.3726495 5.743353 6.084663 -0.05178891 0.1363549 0.5976419 0.1267323 0.03221452 -0.3266492 6017.5
48141 0.3839445 5.667749 6.097158 -0.03848139 0.0733481 0.5767283 0.1341371 0.04652032 -0.2893772 6017.625
48142 0.3950257 5.599144 6.106805 -0.02505999 -0.001847588 0.5467505 0.1410809 0.03981627 -0.2530546 6017.75
48143 0.405852 5.543031 6.111047 -0.01151872 -0.0863211 0.501569 0.1475938 0.01274735 -0.217689 6017.875
48144 0.4164653 5.50043 6.107046 0.002142822 -0.1760636 0.4376747 0.1536996 -0.03637489 -0.183841 6018
48145 0.4269097 5.482278 6.098652 0.01591972 -0.2655833 0.3519148 0.1593984 -0.1046525 -0.1521162 6018.125
48146 0.4372147 5.485354 6.086533 0.02981697 -0.3517684 0.2432195 0.1647116 -0.1863101 -0.1218382 6018.25
48147 0.4473813 5.500204 6.072589 0.04387097 -0.4315146 0.1138464 0.1694326 -0.2724207 -0.09423967 6018.375
48148 0.4573628 5.519132 6.058795 0.05806599 -0.5032957 -0.0318396 0.1733297 -0.3591488 -0.07005724 6018.5
48149 0.4673924 5.53295 6.047509 0.07236754 -0.5674137 -0.1852304 0.1763342 -0.4177631 -0.04984029 6018.625
48150 0.4775548 5.535366 6.042676 0.08677512 -0.6260013 -0.3328628 0.1784678 -0.4359774 -0.03457423 6018.75
48151 0.4877092 5.52634 6.044936 0.1012844 -0.6808754 -0.4657802 0.1798174 -0.4371561 -0.02709671 6018.875
48152 0.4976926 5.504668 6.049831 0.1158852 -0.7333703 -0.565218 0.1805354 -0.4315553 -0.02697749 6019
48153 0.5073632 5.468662 6.056668 0.1305535 -0.7863103 -0.6082436 0.1808847 -0.4231294 -0.02994825 6019.125
48154 0.5165952 5.420757 6.061624 0.1453073 -0.8427607 -0.6082311 0.1810474 -0.4133521 -0.04020856 6019.25
48155 0.5253053 5.360442 6.065341 0.160134 -0.9046672 -0.5800331 0.1811136 -0.4025076 -0.05604545 6019.375
48156 0.5334021 5.288737 6.070203 0.1749668 -0.9712884 -0.5264044 0.1811493 -0.3896701 -0.07720294 6019.5
48157 0.5407905 5.211396 6.07583 0.1898044 -1.04238 -0.4498144 0.1812111 -0.3726188 -0.1043736 6019.625
48158 0.5473866 5.13202 6.08138 0.2046281 -1.114608 -0.3547307 0.1814006 -0.350628 -0.1379163 6019.75
48159 0.5531328 5.050013 6.087283 0.2194607 -1.185226 -0.2458376 0.1820236 -0.3210887 -0.1760249 6019.875
48160 0.5579943 4.968054 6.088924 0.2343472 -1.251419 -0.1288477 0.1832877 -0.2828005 -0.2161727 6020
48161 0.5619531 4.892005 6.085601 0.2493338 -1.309682 -0.009854234 0.1852346 -0.233019 -0.2539506 6020.125
48162 0.5650006 4.826653 6.074815 0.264452 -1.360604 0.1034605 0.1876167 -0.1713382 -0.2828313 6020.25
48163 0.5671522 4.775444 6.052901 0.279745 -1.399125 0.2056347 0.1901338 -0.09811684 -0.2978516 6020.375
48164 0.5683547 4.738719 6.01812 0.295212 -1.421026 0.2917463 0.192728 -0.01659423 -0.2933764 6020.5
48165 0.5684683 4.716815 5.970265 0.3111944 -1.427439 0.3578654 0.1954027 0.06993313 -0.2783598 6020.625
48166 0.5673722 4.708954 5.912314 0.3279594 -1.421135 0.4051624 0.1982232 0.157883 -0.2553075 6020.75
48167 0.5650228 4.709692 5.84896 0.3456458 -1.407231 0.4278945 0.2011401 0.2432629 -0.2288122 6020.875
48168 0.561341 4.715979 5.781343 0.3643406 -1.390091 0.4244836 0.2041033 0.320004 -0.2079104 6021
48169 0.556026 4.722836 5.731675 0.3840607 -1.37265 0.4006816 0.207068 0.3847742 -0.1987848 6021.125
48170 0.5492277 4.727819 5.710603 0.4046458 -1.356257 0.3600069 0.2099906 0.4390391 -0.2012862 6021.25
48171 0.5410677 4.730613 5.718132 0.4258867 -1.340643 0.3107223 0.2128397 0.4840243 -0.2192127 6021.375
48172 0.531608 4.730415 5.7525 0.4475621 -1.323624 0.2601583 0.2155064 0.5176709 -0.2496902 6021.5
48173 0.5209794 4.72687 5.810797 0.4692478 -1.302892 0.2125303 0.2178374 0.5396013 -0.2903576 6021.625
48174 0.5092908 4.716132 5.88645 0.4904514 -1.272771 0.1688872 0.2196935 0.549558 -0.3381534 6021.75
48175 0.4966668 4.699131 5.971986 0.5109105 -1.228233 0.1302751 0.2210955 0.5501023 -0.389887 6021.875
48176 0.4832336 4.683405 6.059705 0.530411 -1.164789 0.09666003 0.2221483 0.5478942 -0.4499903 6022
48177 0.468916 4.677746 6.141783 0.5486993 -1.081002 0.06800397 0.2229271 0.5460209 -0.4934202 6022.125
48178 0.4536889 4.686782 6.211401 0.56575 -0.9785014 0.04390969 0.2233204 0.5489578 -0.5130378 6022.25
48179 0.4376463 4.709181 6.265875 0.581455 -0.8578454 0.02550446 0.2233459 0.549459 -0.5177323 6022.375
48180 0.4209104 4.744736 6.289943 0.5957056 -0.7295304 0.01332362 0.2230632 0.5461853 -0.5108668 6022.5
48181 0.4035707 4.789772 6.290511 0.6084595 -0.6081118 0.004720343 0.2225263 0.536624 -0.4925983 6022.625
48182 0.3856944 4.842385 6.275524 0.6197006 -0.5055956 -0.002988602 0.2217707 0.5217922 -0.4642988 6022.75
48183 0.3673837 4.892557 6.246824 0.629451 -0.4205656 -0.01096285 0.2208314 0.4981372 -0.4282864 6022.875
48184 0.3487492 4.935297 6.210036 0.6377807 -0.3696391 -0.01969247 0.219751 0.4664778 -0.3862064 6023
48185 0.3298079 4.971513 6.172939 0.6447754 -0.3477749 -0.02623562 0.2186268 0.4276867 -0.3413967 6023.125
48186 0.3106438 4.998194 6.138247 0.6505657 -0.3501447 -0.0291708 0.2175144 0.3834477 -0.2957932 6023.25
