"velocity"
"Time Step" "vx etc.."
("Time Step" "vx(point-04-000625)" "vx(point-04-080000)" "vx(point-14-080000)" "vy(point-04-000625)" "vy(point-04-080000)" "vy(point-14-080000)" "vz(point-04-000625)" "vz(point-04-080000)" "vz(point-14-080000)" "flow-time")
48001 0.1195342 3.581358 5.162752 0.4945873 -0.8044062 0.3390774 0.04406558 0.3204913 0.5796351 6000.125
48002 0.1228106 3.566475 5.188352 0.4922968 -0.8196615 0.2985422 0.04670127 0.3126489 0.6681597 6000.25
48003 0.125179 3.555662 5.231409 0.4900144 -0.8347476 0.2681733 0.04927576 0.304195 0.754261 6000.375
48004 0.1265495 3.549788 5.288045 0.4878153 -0.8488094 0.2555414 0.05186122 0.2955059 0.8372464 6000.5
48005 0.1270951 3.549906 5.347845 0.485963 -0.8610634 0.2580024 0.05449871 0.2838438 0.9122464 6000.625
48006 0.1270295 3.556652 5.403248 0.484506 -0.8710041 0.2776985 0.05728108 0.2666872 0.9786322 6000.75
48007 0.1264868 3.569735 5.449062 0.4837346 -0.878379 0.3175763 0.06019675 0.24319 1.019665 6000.875
48008 0.125566 3.587835 5.474449 0.4841781 -0.8843632 0.376809 0.06321754 0.2127624 1.023753 6001
48009 0.1242778 3.608589 5.479257 0.4858289 -0.8892609 0.454559 0.06632937 0.1757026 1.007537 6001.125
48010 0.1225939 3.630636 5.467269 0.4884092 -0.89435 0.5444039 0.0695078 0.1345337 0.9702142 6001.25
48011 0.1204167 3.652191 5.443039 0.4915838 -0.90011 0.6368121 0.07273837 0.08944081 0.9084882 6001.375
48012 0.1177122 3.671881 5.409862 0.4944425 -0.9080092 0.7250831 0.07620399 0.04157865 0.8208925 6001.5
48013 0.1144274 3.683209 5.379801 0.4964075 -0.9173948 0.8053765 0.08007249 -0.007753899 0.705798 6001.625
48014 0.1104243 3.687171 5.364961 0.4973254 -0.9276431 0.8558356 0.08436578 -0.05774532 0.5670564 6001.75
48015 0.1057234 3.688264 5.361646 0.4975933 -0.9387323 0.8654361 0.08888942 -0.1063438 0.4098926 6001.875
48016 0.1004826 3.68686 5.372823 0.4974491 -0.949645 0.8466886 0.09342486 -0.1506352 0.2437465 6002
48017 0.09482177 3.682042 5.397001 0.4969162 -0.957873 0.8021325 0.09796456 -0.1885878 0.08021612 6002.125
48018 0.08881657 3.673914 5.433177 0.4960681 -0.9584922 0.7368854 0.1025239 -0.2210108 -0.06484393 6002.25
48019 0.08249088 3.664296 5.481989 0.4950044 -0.9550121 0.6721125 0.1069187 -0.2413333 -0.1784304 6002.375
48020 0.07595386 3.65616 5.522115 0.4937208 -0.9478595 0.6385319 0.1111767 -0.2500128 -0.2393501 6002.5
48021 0.06940395 3.651651 5.543061 0.4923611 -0.936125 0.6310019 0.1154654 -0.2453557 -0.2306253 6002.625
48022 0.06287121 3.650941 5.535193 0.4910273 -0.9189881 0.6350004 0.1197281 -0.2323335 -0.1735057 6002.75
48023 0.05637776 3.653521 5.503617 0.4898621 -0.896553 0.6482641 0.1240411 -0.2128078 -0.07505551 6002.875
48024 0.04990461 3.657906 5.450785 0.4889318 -0.8682032 0.6665049 0.1284796 -0.1865874 0.05649735 6003
48025 0.04328199 3.663368 5.38325 0.4881811 -0.8333101 0.6780992 0.1331059 -0.1532573 0.2101049 6003.125
48026 0.03639761 3.670866 5.310758 0.4876835 -0.7924067 0.6846513 0.1378878 -0.1111808 0.3727557 6003.25
48027 0.02916122 3.681304 5.235956 0.487385 -0.7464293 0.6810833 0.1428186 -0.05941737 0.5345961 6003.375
48028 0.02150147 3.695832 5.173255 0.4871647 -0.695787 0.6647278 0.1478807 -0.0008886649 0.6870381 6003.5
48029 0.0134513 3.714282 5.136776 0.4869454 -0.6430185 0.6379684 0.1531345 0.06286957 0.8222029 6003.625
48030 0.005083228 3.739816 5.13248 0.4866383 -0.588506 0.6037059 0.1586016 0.1320481 0.9303744 6003.75
48031 -0.003519185 3.774329 5.147196 0.4862206 -0.5308613 0.5640501 0.1642506 0.202727 1.009186 6003.875
48032 -0.01218713 3.81717 5.17646 0.485662 -0.4696395 0.5237853 0.1700535 0.2707537 1.063137 6004
48033 -0.02072747 3.867939 5.213757 0.4849932 -0.4049085 0.4845223 0.1760034 0.3372937 1.090365 6004.125
48034 -0.02898135 3.930924 5.245033 0.4842531 -0.3335769 0.4430689 0.1819453 0.4015038 1.099956 6004.25
48035 -0.03671359 4.005462 5.263623 0.4835323 -0.2546966 0.4026205 0.1877425 0.4599103 1.099873 6004.375
48036 -0.0437898 4.083043 5.264998 0.4831598 -0.1680083 0.3650069 0.1932508 0.512817 1.10067 6004.5
48037 -0.0502762 4.167075 5.244601 0.4832189 -0.0730238 0.3294588 0.1986303 0.5619904 1.107802 6004.625
48038 -0.05614598 4.256362 5.20043 0.4835626 0.03047201 0.3021886 0.2039632 0.5892058 1.124866 6004.75
48039 -0.06127405 4.346921 5.138458 0.4841567 0.1393322 0.2783924 0.2088594 0.5985935 1.140888 6004.875
48040 -0.06570438 4.436111 5.065773 0.4848738 0.2497426 0.2588769 0.2135909 0.592752 1.148087 6005
48041 -0.06944505 4.52102 4.978579 0.4856388 0.3610902 0.2495447 0.2182467 0.5701266 1.141886 6005.125
48042 -0.07239839 4.599103 4.903892 0.4864207 0.4700854 0.2523749 0.2228399 0.5245274 1.125786 6005.25
48043 -0.07438743 4.67293 4.86896 0.4871843 0.5709805 0.2713197 0.2273252 0.4521132 1.09652 6005.375
48044 -0.07536693 4.743746 4.865832 0.4879229 0.6604937 0.3158343 0.2315352 0.363317 1.052539 6005.5
48045 -0.07534026 4.820523 4.876084 0.4886041 0.7317175 0.382927 0.2354238 0.2664981 0.9942865 6005.625
48046 -0.0743877 4.901361 4.896212 0.4891209 0.7823536 0.4661514 0.2389412 0.1738186 0.9235759 6005.75
48047 -0.07260486 4.982676 4.926398 0.4893961 0.8101256 0.5562746 0.2421123 0.09614569 0.843205 6005.875
48048 -0.07001612 5.060358 4.972872 0.4894424 0.8097441 0.6435671 0.2449436 0.03611936 0.7545522 6006
48049 -0.06661002 5.131042 5.037269 0.4892796 0.7990678 0.7250713 0.2475333 -0.005274941 0.6564404 6006.125
48050 -0.06231861 5.189425 5.121383 0.4888461 0.7826242 0.7932249 0.2498721 -0.0251414 0.5498825 6006.25
48051 -0.05710646 5.23929 5.226631 0.4880607 0.763915 0.8365308 0.2519042 -0.02576949 0.4345241 6006.375
48052 -0.05096954 5.275706 5.35099 0.4868864 0.744578 0.8515589 0.2535866 -0.0180887 0.3098758 6006.5
48053 -0.04390449 5.293403 5.490876 0.4853218 0.7220994 0.8420803 0.2549058 -0.006516236 0.1761438 6006.625
48054 -0.03589872 5.289906 5.636277 0.4833517 0.6902206 0.8125407 0.2558683 0.00568654 0.03245267 6006.75
48055 -0.02698699 5.271801 5.776586 0.480873 0.6457918 0.7707535 0.2564879 0.01552903 -0.1194884 6006.875
48056 -0.01718359 5.237463 5.898162 0.4777912 0.5868969 0.7235211 0.2567515 0.02284048 -0.2754595 6007
48057 -0.006466602 5.183482 5.994493 0.4743069 0.5130622 0.6800604 0.256588 0.03100205 -0.4300192 6007.125
48058 0.005129195 5.11377 6.066381 0.4702951 0.4255416 0.6483836 0.2559901 0.03949468 -0.5608082 6007.25
48059 0.0176318 5.033749 6.115723 0.4655455 0.3271231 0.6368046 0.2547647 0.04888045 -0.6310121 6007.375
48060 0.03092262 4.947477 6.147769 0.4603595 0.2218167 0.6390995 0.2528209 0.0597662 -0.6466439 6007.5
48061 0.04491235 4.860432 6.169767 0.4547679 0.1126872 0.6513897 0.2502339 0.07711546 -0.6358412 6007.625
48062 0.05956166 4.776863 6.18829 0.4484226 0.005090404 0.6660064 0.2470746 0.1028289 -0.6038821 6007.75
48063 0.07497886 4.70037 6.199526 0.4411473 -0.09374759 0.6819873 0.2434945 0.1330132 -0.5554825 6007.875
48064 0.09116156 4.633651 6.202398 0.4329334 -0.1778106 0.7008672 0.2396721 0.164788 -0.4976619 6008
48065 0.1080854 4.579247 6.195763 0.4237752 -0.2477248 0.7250003 0.2356749 0.1954168 -0.4385371 6008.125
48066 0.1257745 4.538226 6.181706 0.4134407 -0.2906698 0.7545429 0.2314706 0.2217262 -0.3845922 6008.25
48067 0.1442579 4.50935 6.162405 0.401437 -0.2971805 0.7909088 0.2270825 0.2330916 -0.337545 6008.375
48068 0.1634057 4.490174 6.140914 0.3878916 -0.2854682 0.8344573 0.2224838 0.2319635 -0.2932099 6008.5
48069 0.1830747 4.479427 6.118609 0.3731609 -0.2571054 0.8845283 0.2176234 0.2242417 -0.2462688 6008.625
48070 0.2031479 4.4729 6.095431 0.3574738 -0.2163941 0.9353893 0.2124992 0.2103079 -0.1907802 6008.75
48071 0.223519 4.46733 6.069145 0.3409972 -0.1674749 0.9808902 0.2071513 0.1928103 -0.1225212 6008.875
48072 0.2441071 4.46014 6.037107 0.3237948 -0.1134726 1.019342 0.2016145 0.1743843 -0.042332 6009
48073 0.264825 4.4514 5.99593 0.3059304 -0.06254829 1.041868 0.1959283 0.1571738 0.05103976 6009.125
48074 0.2855837 4.441077 5.941378 0.2875106 -0.02501224 1.047184 0.1900147 0.1457779 0.1541939 6009.25
48075 0.3063365 4.430761 5.870255 0.2686662 -0.01269318 1.039633 0.183729 0.144125 0.2632914 6009.375
48076 0.3270176 4.420326 5.779084 0.2495813 -0.01260135 1.021273 0.1770664 0.1490254 0.3697793 6009.5
48077 0.3475025 4.411139 5.672756 0.2303839 -0.01794817 0.9909482 0.1701045 0.1609967 0.4675518 6009.625
48078 0.3676594 4.404229 5.560247 0.2111481 -0.02925478 0.9505226 0.1628933 0.1782652 0.5500098 6009.75
48079 0.3874049 4.396185 5.452664 0.1918749 -0.04536758 0.9047744 0.1554495 0.1987452 0.6158631 6009.875
48080 0.4065886 4.384391 5.355313 0.1725641 -0.06668452 0.8509286 0.147178 0.2221063 0.6479883 6010
48081 0.4251036 4.367674 5.295709 0.153892 -0.09436153 0.7827272 0.1379182 0.2470243 0.6437142 6010.125
48082 0.4428239 4.346364 5.279351 0.136085 -0.1294869 0.6994702 0.1278275 0.2717289 0.6141141 6010.25
48083 0.4596989 4.319479 5.300481 0.1189823 -0.1674412 0.6082766 0.1171704 0.2976387 0.5654141 6010.375
48084 0.47577 4.288754 5.358031 0.1021507 -0.201585 0.5101393 0.1062001 0.3248493 0.5059078 6010.5
48085 0.4910573 4.254673 5.445121 0.08542295 -0.2310779 0.4054053 0.09512063 0.3522588 0.445275 6010.625
48086 0.5055289 4.217742 5.552003 0.06876627 -0.2554289 0.2972659 0.08403409 0.3785843 0.3923871 6010.75
48087 0.5192243 4.178641 5.66957 0.05206172 -0.2742991 0.1933474 0.0730761 0.403573 0.3617659 6010.875
48088 0.532078 4.138716 5.791757 0.0351881 -0.2871592 0.09972381 0.06235322 0.4231279 0.3635728 6011
48089 0.544122 4.09869 5.90892 0.01816782 -0.2903314 0.03696904 0.05183454 0.4332556 0.401341 6011.125
48090 0.5554008 4.060183 6.005717 0.0008967287 -0.2874012 0.01347681 0.04151658 0.4377844 0.4828963 6011.25
48091 0.5660135 4.026411 6.06733 -0.01665329 -0.2798721 0.01645143 0.03148055 0.4372302 0.5989422 6011.375
48092 0.5759648 3.995311 6.085532 -0.03446007 -0.2678717 0.04281726 0.02174356 0.4315327 0.7342432 6011.5
48093 0.5852696 3.976647 6.06949 -0.05251215 -0.2528814 0.103299 0.01230463 0.421892 0.8761939 6011.625
48094 0.5934005 3.969565 6.041012 -0.07057901 -0.2326239 0.1962299 0.003131758 0.4086769 0.9748848 6011.75
48095 0.599987 3.967969 6.022569 -0.08843359 -0.2124926 0.3223476 -0.005796216 0.3939829 0.9979039 6011.875
48096 0.6049751 3.968453 6.018518 -0.1053296 -0.1956981 0.4821094 -0.01435981 0.3797994 0.9839658 6012
48097 0.6084551 3.970902 6.040565 -0.1211031 -0.1870412 0.6642641 -0.02240247 0.370426 0.9431451 6012.125
48098 0.6106278 3.973992 6.091139 -0.1357943 -0.1847215 0.8548058 -0.03005126 0.373414 0.8811569 6012.25
48099 0.6117523 3.977955 6.169477 -0.1495364 -0.1876511 1.034938 -0.03757821 0.385625 0.8095632 6012.375
48100 0.612111 3.980268 6.269207 -0.1624208 -0.1955439 1.145969 -0.04525092 0.4060704 0.7371938 6012.5
48101 0.6119335 3.979113 6.378586 -0.1744508 -0.2072815 1.161412 -0.05320886 0.4353506 0.6716282 6012.625
48102 0.611381 3.972875 6.487663 -0.1856772 -0.2203962 1.110403 -0.06132727 0.4728313 0.6151496 6012.75
48103 0.610509 3.961961 6.558236 -0.1963138 -0.2332199 0.9952092 -0.06908792 0.5172511 0.5859172 6012.875
48104 0.6092774 3.946028 6.577355 -0.2065585 -0.2461933 0.8285536 -0.07554901 0.5676368 0.5836779 6013
48105 0.6076655 3.925038 6.576732 -0.2165651 -0.2590718 0.636785 -0.08058105 0.6219367 0.5952768 6013.125
48106 0.6057601 3.898895 6.566865 -0.2261384 -0.2712262 0.4499965 -0.08434068 0.6776583 0.6124551 6013.25
48107 0.603343 3.867931 6.540208 -0.2353144 -0.2820185 0.2899159 -0.0872158 0.7335654 0.6293703 6013.375
48108 0.6003771 3.831123 6.497987 -0.2443496 -0.2904704 0.1785822 -0.08949897 0.7885066 0.6378062 6013.5
48109 0.5969863 3.789697 6.444758 -0.2534433 -0.2944261 0.1303255 -0.09135414 0.8416075 0.6417097 6013.625
48110 0.5935349 3.745658 6.377708 -0.2627952 -0.2947367 0.1443892 -0.09303244 0.8916485 0.6409047 6013.75
48111 0.5900163 3.699632 6.302847 -0.2725572 -0.2940818 0.1983086 -0.09449284 0.9378401 0.6313543 6013.875
48112 0.5862669 3.654901 6.227749 -0.2838785 -0.2921723 0.2765817 -0.09557962 0.9781576 0.6174418 6014
48113 0.5820527 3.614116 6.154975 -0.2959873 -0.2891493 0.3644013 -0.09624907 1.001189 0.5984366 6014.125
48114 0.5773038 3.578474 6.08775 -0.3082722 -0.2844727 0.4508402 -0.09653807 1.010517 0.5756976 6014.25
48115 0.5719519 3.547511 6.030934 -0.3203994 -0.2779481 0.5333478 -0.09658073 1.012735 0.544938 6014.375
48116 0.5659853 3.520515 5.98613 -0.3321604 -0.2695419 0.592274 -0.09640677 1.011666 0.5042479 6014.5
48117 0.559409 3.497637 5.954381 -0.3440297 -0.259021 0.6140302 -0.095846 1.007841 0.4546032 6014.625
48118 0.5525446 3.479236 5.936621 -0.3561815 -0.2456061 0.6257707 -0.09473054 0.9999007 0.4003963 6014.75
48119 0.5454416 3.465649 5.934877 -0.3684463 -0.228601 0.6295567 -0.09296796 0.9871299 0.3452642 6014.875
48120 0.5378874 3.462301 5.942184 -0.3805816 -0.2084737 0.6259313 -0.09000081 0.969167 0.2863117 6015
48121 0.529819 3.464767 5.954872 -0.3926063 -0.1853106 0.61939 -0.08602352 0.9470231 0.2282365 6015.125
48122 0.521336 3.471932 5.967297 -0.4046719 -0.1600884 0.6123428 -0.081133 0.9220219 0.1796561 6015.25
48123 0.5126199 3.484816 5.974547 -0.4169393 -0.1339234 0.6141865 -0.07569245 0.8942375 0.1446346 6015.375
48124 0.5037417 3.505233 5.974122 -0.429431 -0.1065834 0.6243225 -0.0699345 0.8629413 0.1287349 6015.5
48125 0.4945954 3.533237 5.964692 -0.442219 -0.07804682 0.6444671 -0.06372532 0.8296873 0.1296136 6015.625
48126 0.4850383 3.568639 5.945312 -0.4553367 -0.04852768 0.6743088 -0.05683346 0.7952879 0.1373371 6015.75
48127 0.4752086 3.610984 5.917153 -0.4688332 -0.01866392 0.7122673 -0.04905897 0.7608945 0.1453558 6015.875
48128 0.465039 3.660936 5.881972 -0.4825376 0.01231129 0.7547007 -0.04042436 0.7276899 0.1508289 6016
48129 0.4543316 3.718339 5.84374 -0.4965344 0.04335903 0.8021205 -0.03103483 0.6929046 0.1525786 6016.125
48130 0.4430946 3.781684 5.805473 -0.5108862 0.07488209 0.8550239 -0.02143639 0.6640264 0.1507504 6016.25
48131 0.4315648 3.847789 5.769238 -0.5256285 0.1074823 0.9104923 -0.01173373 0.6425813 0.1434953 6016.375
48132 0.4198838 3.912561 5.736551 -0.5406708 0.1425246 0.9655176 -0.001158135 0.6310114 0.1285665 6016.5
48133 0.4072462 3.97298 5.705043 -0.5559787 0.1818922 1.017646 0.01142098 0.6297882 0.1052706 6016.625
48134 0.393537 4.026579 5.672514 -0.5715342 0.2244796 1.065076 0.02553416 0.6345552 0.07805302 6016.75
48135 0.3790841 4.070467 5.636986 -0.5872708 0.2683967 1.1062 0.03985212 0.643938 0.05039626 6016.875
48136 0.3645431 4.107655 5.595474 -0.6031449 0.3113164 1.140248 0.05375613 0.6555647 0.02508841 6017
48137 0.3502345 4.127969 5.547664 -0.6188548 0.3546363 1.167476 0.06698764 0.6696217 0.004430596 6017.125
48138 0.3363297 4.124731 5.494506 -0.6342987 0.3913438 1.185882 0.07945649 0.6871981 -0.0004855513 6017.25
48139 0.3228028 4.102508 5.437877 -0.6493481 0.4164209 1.196483 0.09117642 0.7019922 0.005888024 6017.375
48140 0.3098222 4.069005 5.379778 -0.6640639 0.425296 1.200925 0.1019358 0.7098513 0.02500777 6017.5
48141 0.2975127 4.025792 5.32216 -0.6783923 0.4268626 1.201109 0.1118276 0.7115548 0.05596433 6017.625
48142 0.2858055 3.976775 5.267831 -0.6921842 0.4264448 1.197215 0.121111 0.7087411 0.09654031 6017.75
48143 0.2745757 3.926424 5.219654 -0.7053317 0.4237559 1.189185 0.1297567 0.6987192 0.1456893 6017.875
48144 0.263799 3.879028 5.178293 -0.7177795 0.4168327 1.176399 0.137674 0.6791185 0.2023273 6018
48145 0.253486 3.837973 5.143319 -0.7294576 0.4045046 1.158791 0.1440533 0.65127 0.2654713 6018.125
48146 0.2436276 3.805402 5.11316 -0.7402112 0.387291 1.136629 0.1485574 0.6160145 0.332078 6018.25
48147 0.2340531 3.787213 5.087261 -0.7499283 0.3653748 1.109893 0.1513301 0.5737962 0.3985516 6018.375
48148 0.2246574 3.777381 5.061314 -0.758461 0.3400514 1.07949 0.1529719 0.5243292 0.4618873 6018.5
48149 0.2154063 3.773754 5.036458 -0.7658699 0.3134872 1.045177 0.1536051 0.4684983 0.518661 6018.625
48150 0.2062857 3.777147 5.016542 -0.7723729 0.2884102 1.007344 0.1534521 0.4074019 0.5595071 6018.75
48151 0.1972856 3.787433 5.002509 -0.7784296 0.2665786 0.9678938 0.1527335 0.343158 0.5790992 6018.875
48152 0.1885287 3.800866 4.994552 -0.7841089 0.2463757 0.9278268 0.151583 0.2793216 0.5764222 6019
48153 0.1801022 3.815438 4.994321 -0.7891687 0.2333643 0.8869776 0.1501871 0.2183739 0.5548509 6019.125
48154 0.1720601 3.827073 5.001835 -0.7934579 0.2281155 0.84598 0.1485499 0.1591448 0.515627 6019.25
48155 0.1643462 3.829398 5.017356 -0.7969161 0.2289094 0.8022706 0.1466012 0.110201 0.4590976 6019.375
48156 0.1568841 3.824164 5.042391 -0.7995745 0.2329738 0.7566384 0.1444705 0.07017127 0.3873523 6019.5
48157 0.1495596 3.812438 5.078003 -0.8015137 0.2391789 0.710573 0.1422618 0.03760548 0.3020181 6019.625
48158 0.1423272 3.791623 5.124435 -0.8028036 0.2450625 0.6660245 0.1400342 0.01620144 0.2076275 6019.75
48159 0.1351483 3.761803 5.179149 -0.8034582 0.2503529 0.6247188 0.1377229 0.01225698 0.1097162 6019.875
48160 0.1279969 3.721694 5.238572 -0.8034983 0.2545447 0.5888346 0.1352428 0.01667171 0.01332697 6020
48161 0.1208943 3.670664 5.299407 -0.802928 0.2567153 0.5604463 0.1325932 0.02677678 -0.07687711 6020.125
48162 0.1138464 3.612108 5.357423 -0.8017213 0.2556956 0.5407333 0.1298213 0.04236461 -0.1578326 6020.25
48163 0.1069084 3.548365 5.409463 -0.7999018 0.2505488 0.5303759 0.1269728 0.06341855 -0.2277573 6020.375
48164 0.1002078 3.481149 5.452967 -0.7974275 0.2411533 0.5305397 0.1241102 0.08891403 -0.2896121 6020.5
48165 0.09389137 3.412263 5.487186 -0.7942048 0.2273092 0.5349803 0.1214055 0.1172633 -0.3431107 6020.625
48166 0.08802765 3.343729 5.514854 -0.790333 0.2090836 0.5429745 0.1188335 0.1467961 -0.3880433 6020.75
48167 0.08248684 3.277094 5.533186 -0.7858249 0.1869448 0.5501242 0.1163765 0.1761222 -0.4266469 6020.875
48168 0.07733628 3.212697 5.541082 -0.7807012 0.1617113 0.5549484 0.1140457 0.2039724 -0.4597273 6021
48169 0.07260876 3.150772 5.540277 -0.7749959 0.1344194 0.5560657 0.1118542 0.2293262 -0.489361 6021.125
48170 0.06840929 3.092593 5.53162 -0.7687833 0.1059237 0.5560874 0.109798 0.2513142 -0.5165688 6021.25
48171 0.06480218 3.039718 5.518176 -0.7621598 0.07695416 0.5560375 0.107915 0.269505 -0.5398819 6021.375
48172 0.06180742 2.992642 5.501754 -0.7551678 0.04881284 0.5570233 0.1061606 0.2840398 -0.5597982 6021.5
48173 0.05950618 2.953756 5.482711 -0.7477913 0.02295502 0.5610601 0.104453 0.2929025 -0.5740476 6021.625
48174 0.05807389 2.922404 5.463601 -0.7401175 -0.002119883 0.5657168 0.1027224 0.2979876 -0.5816759 6021.75
48175 0.05744106 2.903793 5.444818 -0.7322517 -0.02367347 0.5713075 0.1009239 0.3016578 -0.5818248 6021.875
48176 0.05738031 2.898447 5.425292 -0.7241853 -0.03819726 0.5784249 0.0990755 0.3047305 -0.5773485 6022
48177 0.05785385 2.902778 5.405009 -0.7159091 -0.04524561 0.5871465 0.09719852 0.3099332 -0.5684013 6022.125
48178 0.05884285 2.916925 5.383423 -0.7074267 -0.04223426 0.5968459 0.09527936 0.3175518 -0.557348 6022.25
48179 0.06042637 2.942356 5.36178 -0.698805 -0.03093992 0.6065523 0.09328167 0.3288681 -0.5470139 6022.375
48180 0.06274688 2.978464 5.342241 -0.6901292 -0.01472017 0.6157194 0.09121462 0.3437088 -0.5412841 6022.5
48181 0.06586007 3.025164 5.326263 -0.6814904 0.00590027 0.6233682 0.08907882 0.361457 -0.541003 6022.625
48182 0.06975682 3.081946 5.314981 -0.6729933 0.03016975 0.6266155 0.08684373 0.3810876 -0.5439064 6022.75
48183 0.07442375 3.149188 5.310925 -0.6646629 0.05890161 0.6248664 0.08448999 0.4009883 -0.5488474 6022.875
48184 0.07984913 3.227067 5.315812 -0.6565323 0.0911901 0.618304 0.08202957 0.4183384 -0.5544842 6023
48185 0.08607218 3.314425 5.32737 -0.6486154 0.1261332 0.607298 0.07949367 0.4326867 -0.5600597 6023.125
48186 0.09311677 3.409565 5.345947 -0.6409729 0.1645469 0.5923604 0.07697334 0.4416176 -0.5642158 6023.25
48187 0.1010091 3.510691 5.370755 -0.6336395 0.2057582 0.5739668 0.07454448 0.4437994 -0.5673648 6023.375
48188 0.1097441 3.614235 5.400112 -0.6265738 0.2490246 0.552467 0.07221935 0.4386126 -0.5704437 6023.5
48189 0.1192431 3.716198 5.432271 -0.619679 0.2976557 0.528209 0.07000623 0.4262319 -0.5736843 6023.625
