"velocity"
"Time Step" "vx etc.."
("Time Step" "vx(point-04-000625)" "vx(point-04-080000)" "vx(point-14-080000)" "vy(point-04-000625)" "vy(point-04-080000)" "vy(point-14-080000)" "vz(point-04-000625)" "vz(point-04-080000)" "vz(point-14-080000)" "flow-time")
48001 7.515355 11.13254 10.95989 -0.4278525 0.2040496 0.5170512 0.1026716 -0.08048862 -0.2492566 6000.125
48002 7.480627 11.1229 10.9811 -0.4000809 0.1977504 0.489947 0.1274342 -0.05515159 -0.2545116 6000.25
48003 7.437068 11.1173 11.00139 -0.3683006 0.1913089 0.4621221 0.1359787 -0.03185428 -0.2601799 6000.375
48004 7.381947 11.11463 11.02045 -0.3249465 0.1849625 0.4345535 0.1318447 -0.01089722 -0.2654858 6000.5
48005 7.314765 11.11457 11.03791 -0.2628513 0.1798682 0.4073956 0.1162556 0.008030958 -0.2686493 6000.625
48006 7.233718 11.11737 11.05328 -0.1757748 0.1769862 0.380491 0.0911419 0.02415557 -0.2688594 6000.75
48007 7.139707 11.12391 11.06585 -0.0622609 0.175951 0.3533986 0.0570501 0.03648425 -0.2651751 6000.875
48008 7.03247 11.13468 11.07502 0.07139582 0.1768439 0.3255019 0.01934683 0.04457856 -0.2566399 6001
48009 6.925802 11.15061 11.07998 0.2085191 0.1790188 0.2962128 -0.008675761 0.04795455 -0.2424914 6001.125
48010 6.837591 11.17236 11.08053 0.3329104 0.1816454 0.265151 -0.02060077 0.04705757 -0.2227748 6001.25
48011 6.779856 11.20018 11.07645 0.4378029 0.1845129 0.2320393 -0.01924314 0.04228177 -0.1983645 6001.375
48012 6.77463 11.2341 11.06812 0.5278158 0.1870476 0.1969067 -0.004929936 0.03415866 -0.1708397 6001.5
48013 6.819387 11.2735 11.05628 0.5776497 0.1878072 0.1600119 0.02279478 0.023591 -0.1415594 6001.625
48014 6.917658 11.31744 11.04206 0.5941474 0.1876508 0.1215845 0.06534459 0.01168645 -0.1116224 6001.75
48015 7.06619 11.36455 11.02734 0.5921957 0.1869593 0.08275156 0.1177652 -0.0006347497 -0.0821035 6001.875
48016 7.255991 11.41297 11.0142 0.5712771 0.1857205 0.0449627 0.1722022 -0.01281165 -0.05446818 6002
48017 7.4761 11.46048 11.00525 0.5374981 0.1841493 0.009182545 0.2160083 -0.02433693 -0.03021668 6002.125
48018 7.703025 11.5045 11.0037 0.4987112 0.1825677 -0.02352089 0.2294649 -0.03477552 -0.01128574 6002.25
48019 7.90187 11.54234 11.00831 0.4781429 0.1813053 -0.0516201 0.213585 -0.04334791 0.0005409174 6002.375
48020 8.006331 11.57132 11.02017 0.4713245 0.1807276 -0.07364023 0.1731356 -0.04908105 0.002916086 6002.5
48021 8.052969 11.58934 11.03899 0.4619547 0.1814211 -0.08939628 0.1224062 -0.04988809 -0.002036917 6002.625
48022 8.045938 11.59511 11.06358 0.417323 0.1842939 -0.09915765 0.07410884 -0.04692627 -0.01333818 6002.75
48023 7.979265 11.59096 11.09297 0.3304164 0.1896842 -0.102736 0.02456658 -0.0401019 -0.02860563 6002.875
48024 7.866302 11.57638 11.12575 0.2168153 0.1971586 -0.1010572 -0.0291218 -0.03211082 -0.04671204 6003
48025 7.724434 11.55254 11.16002 0.09582803 0.2058022 -0.09423356 -0.08054 -0.02475326 -0.06679912 6003.125
48026 7.562308 11.52088 11.19375 -0.01652753 0.2143557 -0.08250389 -0.1259118 -0.01868583 -0.08796389 6003.25
48027 7.392445 11.48404 11.22497 -0.108858 0.221967 -0.06624062 -0.1615764 -0.01493036 -0.1081994 6003.375
48028 7.230238 11.44522 11.25256 -0.1823254 0.227814 -0.04594854 -0.1882158 -0.01478383 -0.1254862 6003.5
48029 7.093561 11.40696 11.27588 -0.2350781 0.2305079 -0.02235325 -0.1982134 -0.01874855 -0.13868 6003.625
48030 6.990172 11.37183 11.29473 -0.2641952 0.2296416 0.004150853 -0.1897656 -0.02752137 -0.147632 6003.75
48031 6.932564 11.34177 11.30881 -0.273897 0.2245322 0.03312588 -0.1699827 -0.04101999 -0.1523928 6003.875
48032 6.930069 11.31777 11.31574 -0.2748554 0.2147928 0.0638667 -0.1509907 -0.05881656 -0.1537295 6004
48033 6.968468 11.30052 11.3197 -0.2725668 0.2002317 0.09467343 -0.1413798 -0.08027977 -0.1521023 6004.125
48034 7.043127 11.29118 11.32133 -0.2691581 0.1811173 0.1239735 -0.1385008 -0.1044901 -0.1478562 6004.25
48035 7.147022 11.28834 11.32116 -0.2634349 0.1581252 0.1503562 -0.1373655 -0.1317076 -0.1414644 6004.375
48036 7.265476 11.29063 11.31986 -0.2510384 0.1314771 0.1723701 -0.1328063 -0.160677 -0.1336548 6004.5
48037 7.385452 11.29646 11.31787 -0.2280885 0.1016311 0.1889134 -0.1228066 -0.1898243 -0.126498 6004.625
48038 7.494892 11.30506 11.31526 -0.1879922 0.06880876 0.1980859 -0.1068881 -0.2161438 -0.1211889 6004.75
48039 7.585155 11.31607 11.31306 -0.1373737 0.0335285 0.1974888 -0.08472596 -0.2376213 -0.1161649 6004.875
48040 7.650127 11.32978 11.31441 -0.08922878 -0.003774016 0.1868135 -0.05772688 -0.2549974 -0.1104455 6005
48041 7.669209 11.34612 11.31949 -0.06193456 -0.04293792 0.1659323 -0.02689203 -0.2693305 -0.1043472 6005.125
48042 7.650397 11.36444 11.32964 -0.06413462 -0.08333988 0.1355883 0.006339501 -0.2811397 -0.09927502 6005.25
48043 7.593358 11.38426 11.34565 -0.09134475 -0.124083 0.09751236 0.04058549 -0.2890876 -0.09701812 6005.375
48044 7.505478 11.40392 11.3676 -0.1407603 -0.1640761 0.05341473 0.07570165 -0.293024 -0.09647308 6005.5
48045 7.40007 11.42147 11.3967 -0.2089468 -0.2023966 0.005785378 0.111546 -0.2912654 -0.09854738 6005.625
48046 7.294336 11.4337 11.43346 -0.2883702 -0.238141 -0.04269523 0.1443556 -0.2833595 -0.1029484 6005.75
48047 7.201679 11.4422 11.47616 -0.3659632 -0.2707435 -0.08965449 0.1706188 -0.2697304 -0.1087721 6005.875
48048 7.128255 11.44844 11.52249 -0.4297898 -0.2983565 -0.1325968 0.1898133 -0.250952 -0.1147667 6006
48049 7.075039 11.45269 11.56953 -0.4693364 -0.3184626 -0.1698318 0.1949114 -0.2273983 -0.1196381 6006.125
48050 7.038416 11.45595 11.61335 -0.4815233 -0.3311495 -0.1997734 0.1910492 -0.1985917 -0.1214251 6006.25
48051 7.011595 11.45714 11.64884 -0.473466 -0.3343618 -0.2220525 0.1798051 -0.1663224 -0.1200813 6006.375
48052 6.985594 11.45372 11.67312 -0.4438249 -0.3294767 -0.2378552 0.1597393 -0.1315342 -0.1151071 6006.5
48053 6.950295 11.44475 11.6856 -0.3937353 -0.3170396 -0.2472328 0.1361002 -0.09599216 -0.1062246 6006.625
48054 6.898932 11.42882 11.69187 -0.3280874 -0.2984359 -0.2475718 0.118367 -0.05983789 -0.0933645 6006.75
48055 6.836569 11.40562 11.69561 -0.2486561 -0.2740712 -0.2389785 0.1091614 -0.02301011 -0.07757355 6006.875
48056 6.778531 11.37616 11.69871 -0.1616309 -0.2445983 -0.2237292 0.1029907 0.01386845 -0.05878255 6007
48057 6.735949 11.34212 11.70321 -0.07452565 -0.2109106 -0.203296 0.08434132 0.04990267 -0.03682775 6007.125
48058 6.718115 11.30578 11.71241 0.006476393 -0.1742392 -0.1789673 0.0453922 0.0839611 -0.01301627 6007.25
48059 6.732716 11.26922 11.72689 0.07572149 -0.1361908 -0.1515946 -0.01542696 0.1148846 0.01090427 6007.375
48060 6.779798 11.23527 11.74574 0.130816 -0.0984768 -0.1233418 -0.08857094 0.1413538 0.03370751 6007.5
48061 6.880024 11.20682 11.76696 0.1560185 -0.06339653 -0.09755696 -0.1143124 0.1623213 0.05498416 6007.625
48062 7.061724 11.18663 11.78825 0.1543831 -0.03292587 -0.07665172 -0.08377582 0.17726 0.07534612 6007.75
48063 7.338726 11.1779 11.80763 0.1323571 -0.01196443 -0.06191098 -0.01455332 0.1849232 0.0952404 6007.875
48064 7.704137 11.17607 11.82355 0.1024525 -0.00239568 -0.0554687 0.0534769 0.1869835 0.1143684 6008
48065 8.120687 11.18082 11.83415 0.06662323 -0.0003391353 -0.05562373 0.09085845 0.1830974 0.1319782 6008.125
48066 8.52811 11.18992 11.84081 0.02833254 -0.006901006 -0.0616079 0.08477119 0.1729404 0.1471037 6008.25
48067 8.853679 11.20301 11.8426 -0.0007756999 -0.02183504 -0.07209651 0.02569312 0.1582532 0.1594965 6008.375
48068 9.039341 11.21884 11.83822 -0.01828326 -0.0445233 -0.08534742 -0.07616667 0.1416685 0.1690995 6008.5
48069 9.05458 11.23696 11.82868 -0.02116702 -0.07361436 -0.09970929 -0.1866699 0.1270613 0.1755687 6008.625
48070 8.970764 11.25739 11.8147 -0.0127188 -0.1069174 -0.1121556 -0.2420888 0.1152599 0.178776 6008.75
48071 8.836276 11.27991 11.79742 0.006084293 -0.1422534 -0.1200932 -0.247441 0.105468 0.1782216 6008.875
48072 8.704559 11.30345 11.77787 0.03647798 -0.1770635 -0.1243645 -0.2205528 0.09649265 0.1738582 6009
48073 8.605771 11.32704 11.75699 0.07596062 -0.2089234 -0.1261861 -0.1714782 0.08810409 0.1654408 6009.125
48074 8.555291 11.35018 11.73563 0.1201483 -0.2358535 -0.1266022 -0.1124546 0.08066903 0.1532169 6009.25
48075 8.553186 11.37253 11.71448 0.1618516 -0.2557456 -0.1257844 -0.05720534 0.07413699 0.1373957 6009.375
48076 8.585187 11.39384 11.69425 0.2010013 -0.2658348 -0.123938 -0.01432477 0.0693232 0.1179747 6009.5
48077 8.635983 11.41309 11.67537 0.2310635 -0.2666654 -0.1214965 0.004681103 0.06739137 0.09558786 6009.625
48078 8.687125 11.42868 11.65867 0.248638 -0.2600679 -0.1186197 0.001312977 0.06776254 0.07090435 6009.75
48079 8.724904 11.43844 11.64479 0.2499105 -0.2467604 -0.1151071 -0.02296832 0.07161767 0.0449762 6009.875
48080 8.738892 11.44111 11.63438 0.2388837 -0.2282374 -0.1105916 -0.06204778 0.07879689 0.01806265 6010
48081 8.731626 11.43866 11.62777 0.2207937 -0.2055948 -0.1048825 -0.1069047 0.0900249 -0.009067651 6010.125
48082 8.711469 11.42998 11.62496 0.202676 -0.1802374 -0.09821582 -0.1464911 0.1045584 -0.03502903 6010.25
48083 8.684431 11.41548 11.62581 0.189843 -0.153765 -0.09090179 -0.1757643 0.1198764 -0.05836216 6010.375
48084 8.657494 11.39559 11.62992 0.1855717 -0.1279659 -0.08343858 -0.1870018 0.1336665 -0.07751967 6010.5
48085 8.633721 11.37136 11.63643 0.189234 -0.1039452 -0.07631897 -0.1849053 0.1434788 -0.09186842 6010.625
48086 8.614726 11.34415 11.64428 0.1965259 -0.08216543 -0.06999158 -0.1775812 0.1481339 -0.1018748 6010.75
48087 8.598266 11.31614 11.65232 0.2065109 -0.06439003 -0.06508829 -0.1748279 0.1469284 -0.1078974 6010.875
48088 8.578876 11.28885 11.65866 0.2186757 -0.05596682 -0.06244822 -0.1796415 0.1376756 -0.1093779 6011
48089 8.550565 11.26523 11.66279 0.2304499 -0.05322981 -0.06303447 -0.1926809 0.1192453 -0.1075736 6011.125
48090 8.508845 11.24751 11.66379 0.239874 -0.05442117 -0.06727946 -0.2128257 0.09486486 -0.1028203 6011.25
48091 8.455898 11.23867 11.66211 0.2453614 -0.05856211 -0.07572927 -0.2357573 0.06744792 -0.09546595 6011.375
48092 8.393699 11.23775 11.6578 0.2467394 -0.06523298 -0.08822268 -0.2565708 0.03761453 -0.08628491 6011.5
48093 8.321836 11.245 11.6513 0.2434081 -0.07421078 -0.1045646 -0.2656935 0.00535166 -0.0773458 6011.625
48094 8.239951 11.25848 11.64291 0.2367034 -0.08472249 -0.1243579 -0.2647292 -0.02778418 -0.06945815 6011.75
48095 8.14934 11.27646 11.63278 0.229027 -0.09608521 -0.1466628 -0.2546738 -0.06064709 -0.06335063 6011.875
48096 8.052221 11.29707 11.62133 0.2237379 -0.107379 -0.1701119 -0.2354236 -0.09163323 -0.05979719 6012
48097 7.951063 11.31844 11.60906 0.2202139 -0.1177541 -0.1932007 -0.2074272 -0.1198935 -0.05970407 6012.125
48098 7.848425 11.3393 11.59588 0.2167455 -0.126506 -0.2143721 -0.1716321 -0.1456336 -0.06306208 6012.25
48099 7.745675 11.35844 11.5827 0.2119034 -0.1333654 -0.2316212 -0.1290544 -0.1690957 -0.06979081 6012.375
48100 7.641269 11.37523 11.57088 0.2038947 -0.1384812 -0.2427053 -0.08277667 -0.190357 -0.07916526 6012.5
48101 7.531352 11.38968 11.56055 0.1911172 -0.1421033 -0.2478586 -0.03651081 -0.2093577 -0.09052844 6012.625
48102 7.412444 11.40215 11.55169 0.1727472 -0.1445036 -0.2477856 0.007105503 -0.2261321 -0.102481 6012.75
48103 7.282475 11.41308 11.54408 0.1486104 -0.1460407 -0.2420969 0.04707605 -0.2403062 -0.1146694 6012.875
48104 7.141023 11.42333 11.53753 0.1201332 -0.1473103 -0.2312565 0.08302573 -0.2517111 -0.1276079 6013
48105 6.988925 11.4342 11.53132 0.09152195 -0.1485351 -0.2159148 0.1158497 -0.2605939 -0.1408075 6013.125
48106 6.830594 11.44667 11.52479 0.06886494 -0.1494706 -0.1969881 0.1344856 -0.2672619 -0.1534457 6013.25
48107 6.671879 11.46124 11.51766 0.06101287 -0.1501228 -0.1753969 0.1424708 -0.2717159 -0.1648928 6013.375
48108 6.518785 11.47794 11.50972 0.06703339 -0.150508 -0.1521221 0.1457146 -0.2735095 -0.1748209 6013.5
48109 6.377454 11.4966 11.50085 0.08880045 -0.1504489 -0.1278621 0.1439947 -0.2726115 -0.182773 6013.625
48110 6.25244 11.51658 11.49112 0.1254454 -0.1502394 -0.1034867 0.1357229 -0.2691354 -0.1880996 6013.75
48111 6.146425 11.53661 11.48049 0.1746949 -0.1501931 -0.0802563 0.1189447 -0.2629535 -0.1891775 6013.875
48112 6.059996 11.55539 11.46982 0.2312929 -0.1500496 -0.05895253 0.09311321 -0.2541934 -0.1861027 6014
48113 5.993504 11.57125 11.4597 0.2896515 -0.1500097 -0.04023006 0.05957254 -0.2420294 -0.1787622 6014.125
48114 5.944283 11.58217 11.45044 0.3329784 -0.15031 -0.02471709 0.02295152 -0.2263962 -0.1671362 6014.25
48115 5.919749 11.58517 11.44269 0.3496543 -0.1510366 -0.01307768 -0.005560801 -0.2080767 -0.150586 6014.375
48116 5.919192 11.58058 11.43681 0.3369755 -0.1521876 -0.006005029 -0.01499285 -0.1877401 -0.1288774 6014.5
48117 5.942786 11.56709 11.43351 0.2838389 -0.1540599 -0.00456603 -0.001854706 -0.1665996 -0.1030594 6014.625
48118 6.006542 11.54481 11.43331 0.1843353 -0.1567556 -0.007688908 0.03904758 -0.1451158 -0.07449029 6014.75
48119 6.125584 11.51443 11.43471 0.03695238 -0.1602674 -0.01538202 0.1152347 -0.1232464 -0.04379071 6014.875
48120 6.319596 11.47771 11.4375 -0.1404921 -0.1642262 -0.02729993 0.2213977 -0.1012909 -0.01156505 6015
48121 6.610449 11.43689 11.44125 -0.3017582 -0.1683215 -0.04274535 0.3418403 -0.07972059 0.02164586 6015.125
48122 6.986558 11.39431 11.44497 -0.3523116 -0.1722625 -0.06095686 0.420377 -0.05912112 0.05514745 6015.25
48123 7.415704 11.35238 11.44763 -0.2965204 -0.1756737 -0.08113447 0.4189472 -0.04015127 0.08844849 6015.375
48124 7.831441 11.31327 11.44858 -0.1415612 -0.1773048 -0.1027502 0.3370276 -0.02353829 0.1208192 6015.5
48125 8.190253 11.27908 11.44697 0.06785794 -0.1777001 -0.1254118 0.1883134 -0.009507958 0.1518033 6015.625
48126 8.355549 11.25154 11.44278 0.2693761 -0.1759216 -0.1484023 0.01478484 0.001433013 0.1812318 6015.75
48127 8.300493 11.23182 11.43456 0.4108435 -0.1709097 -0.170668 -0.1494913 0.008816979 0.2085985 6015.875
48128 8.111442 11.22128 11.42185 0.4735568 -0.1615562 -0.1913597 -0.2379532 0.0122696 0.2332377 6016
48129 7.851465 11.22011 11.40445 0.4779306 -0.1471919 -0.2096259 -0.2521158 0.01118401 0.254511 6016.125
48130 7.584977 11.22682 11.38249 0.4462973 -0.1273605 -0.2250249 -0.2228082 0.005641238 0.2715939 6016.25
48131 7.352838 11.24045 11.35633 0.3996408 -0.1011012 -0.2369606 -0.1617242 -0.0034075 0.2833808 6016.375
48132 7.172215 11.25922 11.32536 0.3533762 -0.06836729 -0.2439164 -0.08388417 -0.01468883 0.2897955 6016.5
48133 7.042521 11.28135 11.29024 0.3147689 -0.0296145 -0.2448965 -0.000225182 -0.02636945 0.2907738 6016.625
48134 6.982955 11.30576 11.25322 0.280561 0.01430348 -0.2399202 0.06772322 -0.03750438 0.2887034 6016.75
48135 6.981448 11.33104 11.2154 0.2445583 0.06208233 -0.2297241 0.09438274 -0.04743789 0.2857545 6016.875
48136 7.0236 11.3557 11.1785 0.2004387 0.1119313 -0.2154072 0.1022279 -0.05555055 0.2813783 6017
48137 7.100009 11.37854 11.1441 0.1429066 0.1617271 -0.19816 0.1041339 -0.06114345 0.2746696 6017.125
48138 7.198807 11.3984 11.11257 0.06889536 0.2088796 -0.1787181 0.1031423 -0.06329076 0.2653376 6017.25
48139 7.304771 11.41436 11.08425 -0.02139 0.2506287 -0.1581379 0.1003728 -0.06240673 0.2536196 6017.375
48140 7.404898 11.42566 11.05969 -0.1213257 0.2845027 -0.1370991 0.09686463 -0.05875425 0.2400787 6017.5
48141 7.47871 11.43157 11.03934 -0.2261804 0.3089671 -0.116626 0.09167276 -0.05282731 0.2254259 6017.625
48142 7.516289 11.43355 11.02413 -0.3254335 0.3225099 -0.09912429 0.08286899 -0.04582463 0.2105657 6017.75
48143 7.512316 11.4333 11.01675 -0.4072114 0.3258631 -0.08531835 0.06408155 -0.03886002 0.1957689 6017.875
48144 7.48578 11.4308 11.01525 -0.4461336 0.3223522 -0.07470648 0.03899738 -0.03322254 0.180496 6018
48145 7.444464 11.42733 11.01847 -0.4429295 0.3135071 -0.06662397 0.0130218 -0.03208159 0.1651389 6018.125
48146 7.393492 11.42334 11.02586 -0.3980179 0.3014845 -0.06027398 -0.007175515 -0.03568139 0.1499186 6018.25
48147 7.342762 11.41911 11.03664 -0.3135169 0.2882883 -0.05526059 -0.01278871 -0.04431677 0.1359451 6018.375
48148 7.300008 11.415 11.04962 -0.193657 0.2751698 -0.05098991 -0.004929144 -0.05784716 0.1232018 6018.5
48149 7.272207 11.41118 11.06417 -0.04863195 0.2628786 -0.0458036 0.01460388 -0.07589047 0.1105363 6018.625
48150 7.266953 11.40787 11.07948 0.1124166 0.251561 -0.03830932 0.04178087 -0.0978701 0.09736697 6018.75
48151 7.279203 11.4051 11.09415 0.2770694 0.2409977 -0.0266146 0.06949873 -0.1227016 0.08341499 6018.875
48152 7.305783 11.4028 11.10644 0.4315839 0.2305992 -0.009163959 0.09446626 -0.1491842 0.0682983 6019
48153 7.342549 11.40092 11.11555 0.5566105 0.2195213 0.01472582 0.1046961 -0.1760198 0.05171878 6019.125
48154 7.381701 11.3993 11.12088 0.6341549 0.2070134 0.04535394 0.0986324 -0.2015834 0.03347205 6019.25
48155 7.41619 11.39774 11.12144 0.6499722 0.1926871 0.08262504 0.07792572 -0.2244081 0.01419875 6019.375
48156 7.438571 11.39622 11.11739 0.6214323 0.1763532 0.1264067 0.04456118 -0.2439765 -0.00543987 6019.5
48157 7.447364 11.39412 11.10851 0.5567762 0.158206 0.1758771 0.005627503 -0.2599855 -0.02506259 6019.625
48158 7.442609 11.39055 11.09518 0.4629449 0.1392951 0.2299693 -0.02666374 -0.2725684 -0.04457154 6019.75
48159 7.435317 11.3851 11.07768 0.3491382 0.1210448 0.2876138 -0.0476313 -0.2770865 -0.06381352 6019.875
48160 7.434113 11.37781 11.05653 0.2262761 0.1042584 0.3472424 -0.05895634 -0.2769091 -0.08177877 6020
48161 7.44589 11.36886 11.03285 0.1059455 0.09085821 0.4070087 -0.06184197 -0.2720301 -0.0978337 6020.125
48162 7.472035 11.35793 11.00831 -0.002931929 0.08210055 0.4645017 -0.05902484 -0.2625582 -0.1116683 6020.25
48163 7.512076 11.34482 10.98514 -0.09505472 0.07870198 0.5170482 -0.05325099 -0.2486587 -0.1234043 6020.375
48164 7.56376 11.32943 10.96582 -0.1651115 0.08072999 0.5619807 -0.04341592 -0.2311906 -0.133697 6020.5
48165 7.627044 11.31172 10.95267 -0.2095553 0.08773428 0.5971392 -0.02725873 -0.2104543 -0.1425193 6020.625
48166 7.69959 11.29217 10.94777 -0.2174211 0.09868853 0.6209339 -0.006374245 -0.1873006 -0.1502997 6020.75
48167 7.778377 11.27159 10.95116 -0.2014998 0.1122951 0.632136 0.01606847 -0.1630165 -0.1564557 6020.875
48168 7.863155 11.25069 10.96174 -0.1639707 0.1272531 0.6316196 0.03743853 -0.139355 -0.1615915 6021
48169 7.950967 11.23034 10.977 -0.1116476 0.1420864 0.6218987 0.04551987 -0.1175273 -0.1669365 6021.125
48170 8.034459 11.21165 10.99425 -0.05087394 0.1555393 0.6058599 0.03978264 -0.09800584 -0.1718984 6021.25
48171 8.105226 11.19617 11.01097 0.01169823 0.1661538 0.5859447 0.01831322 -0.0806833 -0.1757725 6021.375
48172 8.151052 11.18571 11.025 0.06991961 0.1732129 0.5647498 -0.0163422 -0.06600007 -0.1768787 6021.5
48173 8.152168 11.18149 11.03343 0.1207658 0.1758753 0.5440683 -0.05869654 -0.05370287 -0.1755217 6021.625
48174 8.116207 11.18169 11.03587 0.1477004 0.1738379 0.5249891 -0.0998807 -0.04275366 -0.1716824 6021.75
48175 8.049947 11.18576 11.03154 0.1560636 0.1690743 0.5079029 -0.1258517 -0.03218746 -0.1658295 6021.875
48176 7.967793 11.19399 11.02208 0.1557565 0.1622824 0.492477 -0.1315529 -0.02159021 -0.1590033 6022
48177 7.879635 11.20664 11.00959 0.1494744 0.1531824 0.4779823 -0.1279291 -0.01150668 -0.1518101 6022.125
48178 7.790373 11.22344 10.99671 0.1367071 0.1424087 0.4637813 -0.114945 -0.002356237 -0.1450242 6022.25
48179 7.705935 11.24365 10.98712 0.1158891 0.1312148 0.4489745 -0.09330384 0.005772503 -0.1393048 6022.375
48180 7.633509 11.26684 10.98269 0.08233081 0.1206494 0.4324774 -0.06528626 0.01267348 -0.1347573 6022.5
48181 7.576782 11.29284 10.98417 0.03372981 0.1113033 0.413769 -0.03402212 0.01788973 -0.132013 6022.625
48182 7.55157 11.32135 10.99293 -0.02894666 0.1040645 0.3929247 -0.001587712 0.0203322 -0.1325209 6022.75
48183 7.564281 11.35214 11.00885 -0.099099 0.09969364 0.3695432 0.03139446 0.01977561 -0.134484 6022.875
48184 7.617828 11.38521 11.03096 -0.1669954 0.09705382 0.3441393 0.06545357 0.01609848 -0.1370391 6023
48185 7.720583 11.42046 11.05877 -0.222916 0.09599666 0.3170893 0.09935796 0.009177764 -0.1391786 6023.125
48186 7.869321 11.45761 11.09071 -0.2391557 0.09698526 0.2887346 0.1293733 -0.001350262 -0.1401388 6023.25
